 5.52000000000000E+0002 552
 1.11600000000000E+0003 564
 1.70100000000000E+0003 585
 2.33700000000000E+0003 636
 3.04200000000000E+0003 705
 3.76800000000000E+0003 726
 4.46900000000000E+0003 701
 5.17600000000000E+0003 707
 5.91000000000000E+0003 734
 6.60500000000000E+0003 695
 7.29400000000000E+0003 689
 7.97100000000000E+0003 677
 8.63900000000000E+0003 668
 9.26000000000000E+0003 621
 9.88300000000000E+0003 623
 1.05310000000000E+0004 648
 1.12100000000000E+0004 679
 1.19030000000000E+0004 693
 1.26100000000000E+0004 707
 1.33480000000000E+0004 738
 1.40570000000000E+0004 709
 1.47770000000000E+0004 720
 1.55170000000000E+0004 740
 1.62100000000000E+0004 693
 1.69010000000000E+0004 691
 1.75820000000000E+0004 681
 1.82550000000000E+0004 673
 1.89260000000000E+0004 671
 1.95970000000000E+0004 671
 2.02760000000000E+0004 679
 2.09320000000000E+0004 656
 2.15860000000000E+0004 654
 2.22360000000000E+0004 650
 2.29040000000000E+0004 668
 2.35620000000000E+0004 658
 2.41980000000000E+0004 636
 2.48210000000000E+0004 623
 2.54360000000000E+0004 615
 2.60550000000000E+0004 619
 2.66850000000000E+0004 630
 2.73580000000000E+0004 673
 2.80760000000000E+0004 718
 2.87770000000000E+0004 701
 2.95050000000000E+0004 728
 3.02390000000000E+0004 734
 3.09400000000000E+0004 701
 3.16350000000000E+0004 695
 3.23510000000000E+0004 716
 3.30460000000000E+0004 695
 3.37390000000000E+0004 693
 3.44320000000000E+0004 693
 3.51010000000000E+0004 669
 3.57740000000000E+0004 673
 3.64510000000000E+0004 677
 3.71320000000000E+0004 681
 3.78190000000000E+0004 687
 3.85140000000000E+0004 695
 3.92260000000000E+0004 712
 3.99330000000000E+0004 707
 4.06380000000000E+0004 705
 4.13560000000000E+0004 718
 4.20630000000000E+0004 707
 4.27620000000000E+0004 699
 4.34590000000000E+0004 697
 4.41660000000000E+0004 707
 4.48530000000000E+0004 687
 4.55260000000000E+0004 673
 4.62010000000000E+0004 675
 4.68610000000000E+0004 660
 4.75090000000000E+0004 648
 4.81710000000000E+0004 662
 4.88500000000000E+0004 679
 4.95230000000000E+0004 673
 5.01910000000000E+0004 668
 5.08800000000000E+0004 689
 5.15670000000000E+0004 687
 5.22330000000000E+0004 666
 5.29160000000000E+0004 683
 5.35910000000000E+0004 675
 5.42600000000000E+0004 669
 5.49530000000000E+0004 693
 5.56340000000000E+0004 681
 5.63070000000000E+0004 673
 5.69960000000000E+0004 689
 5.76730000000000E+0004 677
 5.83130000000000E+0004 640
 5.89610000000000E+0004 648
 5.96210000000000E+0004 660
 6.02890000000000E+0004 668
 6.10150000000000E+0004 726
 6.17330000000000E+0004 718
 6.24470000000000E+0004 714
 6.31590000000000E+0004 712
 6.38560000000000E+0004 697
 6.45350000000000E+0004 679
 6.52010000000000E+0004 666
 6.58960000000000E+0004 695
 6.65890000000000E+0004 693
 6.72680000000000E+0004 679
 6.79490000000000E+0004 681
 6.86170000000000E+0004 668
 6.92730000000000E+0004 656
 6.99010000000000E+0004 628
 7.05180000000000E+0004 617
 7.11250000000000E+0004 607
 7.17500000000000E+0004 625
 7.23840000000000E+0004 634
 7.30200000000000E+0004 636
 7.36780000000000E+0004 658
 7.43610000000000E+0004 683
 7.50620000000000E+0004 701
 7.57630000000000E+0004 701
 7.64870000000000E+0004 724
 7.71970000000000E+0004 710
 7.79060000000000E+0004 709
 7.86160000000000E+0004 710
 7.93400000000000E+0004 724
 8.00490000000000E+0004 709
 8.07580000000000E+0004 709
 8.14650000000000E+0004 707
 8.21930000000000E+0004 728
 8.29050000000000E+0004 712
 8.36100000000000E+0004 705
 8.43300000000000E+0004 720
 8.50600000000000E+0004 730
 8.57720000000000E+0004 712
 8.64860000000000E+0004 714
 8.72320000000000E+0004 746
 8.79580000000000E+0004 726
 8.86760000000000E+0004 718
 8.94100000000000E+0004 734
 9.01560000000000E+0004 746
 9.09000000000000E+0004 744
 9.16280000000000E+0004 728
 9.23800000000000E+0004 752
 9.31020000000000E+0004 722
 9.37950000000000E+0004 693
 9.45070000000000E+0004 712
 9.52190000000000E+0004 712
 9.59260000000000E+0004 707
 9.66520000000000E+0004 726
 9.73940000000000E+0004 742
 9.81160000000000E+0004 722
 9.88230000000000E+0004 707
 9.95530000000000E+0004 730
 1.00287000000000E+0005 734
 1.00997000000000E+0005 710
 1.01690000000000E+0005 693
 1.02395000000000E+0005 705
 1.03080000000000E+0005 685
 1.03732000000000E+0005 652
 1.04355000000000E+0005 623
 1.05019000000000E+0005 664
 1.05661000000000E+0005 642
 1.06288000000000E+0005 627
 1.06895000000000E+0005 607
 1.07496000000000E+0005 601
 1.08103000000000E+0005 607
 1.08718000000000E+0005 615
 1.09337000000000E+0005 619
 1.09962000000000E+0005 625
 1.10604000000000E+0005 642
 1.11275000000000E+0005 671
 1.11946000000000E+0005 671
 1.12606000000000E+0005 660
 1.13287000000000E+0005 681
 1.13978000000000E+0005 691
 1.14646000000000E+0005 668
 1.15315000000000E+0005 669
 1.16012000000000E+0005 697
 1.16687000000000E+0005 675
 1.17347000000000E+0005 660
 1.18032000000000E+0005 685
 1.18713000000000E+0005 681
 1.19384000000000E+0005 671
 1.20065000000000E+0005 681
 1.20766000000000E+0005 701
 1.21445000000000E+0005 679
 1.22113000000000E+0005 668
 1.22814000000000E+0005 701
 1.23505000000000E+0005 691
 1.24178000000000E+0005 673
 1.24875000000000E+0005 697
 1.25591000000000E+0005 716
 1.26278000000000E+0005 687
 1.26975000000000E+0005 697
 1.27707000000000E+0005 732
 1.28416000000000E+0005 709
 1.29107000000000E+0005 691
 1.29819000000000E+0005 712
 1.30508000000000E+0005 689
 1.31160000000000E+0005 652
 1.31810000000000E+0005 650
 1.32444000000000E+0005 634
 1.33084000000000E+0005 640
 1.33720000000000E+0005 636
 1.34360000000000E+0005 640
 1.35037000000000E+0005 677
 1.35746000000000E+0005 709
 1.36443000000000E+0005 697
 1.37134000000000E+0005 691
 1.37856000000000E+0005 722
 1.38574000000000E+0005 718
 1.39273000000000E+0005 699
 1.39976000000000E+0005 703
 1.40724000000000E+0005 748
 1.41456000000000E+0005 732
 1.42182000000000E+0005 726
 1.42955000000000E+0005 773
 1.43742000000000E+0005 787
 1.44490000000000E+0005 748
 1.45236000000000E+0005 746
 1.45986000000000E+0005 750
 1.46710000000000E+0005 724
 1.47422000000000E+0005 712
 1.48174000000000E+0005 752
 1.48929000000000E+0005 755
 1.49669000000000E+0005 740
 1.50438000000000E+0005 769
 1.51225000000000E+0005 787
 1.51988000000000E+0005 763
 1.52738000000000E+0005 750
 1.53495000000000E+0005 757
 1.54227000000000E+0005 732
 1.54945000000000E+0005 718
 1.55689000000000E+0005 744
 1.56421000000000E+0005 732
 1.57145000000000E+0005 724
 1.57900000000000E+0005 755
 1.58661000000000E+0005 761
 1.59401000000000E+0005 740
 1.60139000000000E+0005 738
 1.60887000000000E+0005 748
 1.61613000000000E+0005 726
 1.62333000000000E+0005 720
 1.63077000000000E+0005 744
 1.63813000000000E+0005 736
 1.64535000000000E+0005 722
 1.65267000000000E+0005 732
 1.66005000000000E+0005 738
 1.66729000000000E+0005 724
 1.67434000000000E+0005 705
 1.68162000000000E+0005 728
 1.68886000000000E+0005 724
 1.69595000000000E+0005 709
 1.70319000000000E+0005 724
 1.71063000000000E+0005 744
 1.71785000000000E+0005 722
 1.72499000000000E+0005 714
 1.73233000000000E+0005 734
 1.73955000000000E+0005 722
 1.74665000000000E+0005 710
 1.75389000000000E+0005 724
 1.76123000000000E+0005 734
 1.76847000000000E+0005 724
 1.77581000000000E+0005 734
 1.78333000000000E+0005 752
 1.79065000000000E+0005 732
 1.79777000000000E+0005 712
 1.80501000000000E+0005 724
 1.81233000000000E+0005 732
 1.81955000000000E+0005 722
 1.82669000000000E+0005 714
 1.83399000000000E+0005 730
 1.84121000000000E+0005 722
 1.84839000000000E+0005 718
 1.85583000000000E+0005 744
 1.86319000000000E+0005 736
 1.87045000000000E+0005 726
 1.87789000000000E+0005 744
 1.88531000000000E+0005 742
 1.89259000000000E+0005 728
 1.89964000000000E+0005 705
 1.90651000000000E+0005 687
 1.91330000000000E+0005 679
 1.92009000000000E+0005 679
 1.92698000000000E+0005 689
 1.93387000000000E+0005 689
 1.94064000000000E+0005 677
 1.94728000000000E+0005 664
 1.95388000000000E+0005 660
 1.96042000000000E+0005 654
 1.96702000000000E+0005 660
 1.97368000000000E+0005 666
 1.98051000000000E+0005 683
 1.98748000000000E+0005 697
 1.99431000000000E+0005 683
 2.00118000000000E+0005 687
 2.00821000000000E+0005 703
 2.01514000000000E+0005 693
 2.02199000000000E+0005 685
 2.02902000000000E+0005 703
 2.03618000000000E+0005 716
 2.04332000000000E+0005 714
 2.05042000000000E+0005 710
 2.05776000000000E+0005 734
 2.06504000000000E+0005 728
 2.07220000000000E+0005 716
 2.07962000000000E+0005 742
 2.08704000000000E+0005 742
 2.09432000000000E+0005 728
 2.10162000000000E+0005 730
 2.10906000000000E+0005 744
 2.11632000000000E+0005 726
 2.12360000000000E+0005 728
 2.13113000000000E+0005 753
 2.13865000000000E+0005 752
 2.14599000000000E+0005 734
 2.15335000000000E+0005 736
 2.16081000000000E+0005 746
 2.16815000000000E+0005 734
 2.17537000000000E+0005 722
 2.18277000000000E+0005 740
 2.19021000000000E+0005 744
 2.19749000000000E+0005 728
 2.20477000000000E+0005 728
 2.21217000000000E+0005 740
 2.21943000000000E+0005 726
 2.22661000000000E+0005 718
 2.23397000000000E+0005 736
 2.24131000000000E+0005 734
 2.24855000000000E+0005 724
 2.25569000000000E+0005 714
 2.26307000000000E+0005 738
 2.27039000000000E+0005 732
 2.27763000000000E+0005 724
 2.28507000000000E+0005 744
 2.29282000000000E+0005 775
 2.30028000000000E+0005 746
 2.30770000000000E+0005 742
 2.31520000000000E+0005 750
 2.32246000000000E+0005 726
 2.32949000000000E+0005 703
 2.33667000000000E+0005 718
 2.34364000000000E+0005 697
 2.35032000000000E+0005 668
 2.35684000000000E+0005 652
 2.36334000000000E+0005 650
 2.36980000000000E+0005 646
 2.37620000000000E+0005 640
 2.38260000000000E+0005 640
 2.38924000000000E+0005 664
 2.39601000000000E+0005 677
 2.40267000000000E+0005 666
 2.40927000000000E+0005 660
 2.41593000000000E+0005 666
 2.42241000000000E+0005 648
 2.42866000000000E+0005 625
 2.43481000000000E+0005 615
 2.44098000000000E+0005 617
 2.44762000000000E+0005 664
 2.45410000000000E+0005 648
 2.46038000000000E+0005 628
 2.46668000000000E+0005 630
 2.47283000000000E+0005 615
 2.47900000000000E+0005 617
 2.48517000000000E+0005 617
 2.49151000000000E+0005 634
 2.49824000000000E+0005 673
 2.50515000000000E+0005 691
 2.51204000000000E+0005 689
 2.51914000000000E+0005 710
 2.52621000000000E+0005 707
 2.53330000000000E+0005 709
 2.54050000000000E+0005 720
 2.54747000000000E+0005 697
 2.55416000000000E+0005 669
 2.56058000000000E+0005 642
 2.56702000000000E+0005 644
 2.57356000000000E+0005 654
 2.58059000000000E+0005 703
 2.58762000000000E+0005 703
 2.59469000000000E+0005 707
 2.60197000000000E+0005 728
 2.60952000000000E+0005 755
 2.61666000000000E+0005 714
 2.62390000000000E+0005 724
 2.63114000000000E+0005 724
 2.63811000000000E+0005 697
 2.64512000000000E+0005 701
 2.65215000000000E+0005 703
 2.65927000000000E+0005 712
 2.66624000000000E+0005 697
 2.67323000000000E+0005 699
 2.68016000000000E+0005 693
 2.68726000000000E+0005 710
 2.69431000000000E+0005 705
 2.70143000000000E+0005 712
 2.70871000000000E+0005 728
 2.71595000000000E+0005 724
 2.72347000000000E+0005 752
 2.73120000000000E+0005 773
 2.73852000000000E+0005 732
 2.74592000000000E+0005 740
 2.75336000000000E+0005 744
 2.76052000000000E+0005 716
 2.76782000000000E+0005 730
 2.77502000000000E+0005 720
 2.78209000000000E+0005 707
 2.78910000000000E+0005 701
 2.79607000000000E+0005 697
 2.80306000000000E+0005 699
 2.81005000000000E+0005 699
 2.81710000000000E+0005 705
 2.82411000000000E+0005 701
 2.83118000000000E+0005 707
 2.83840000000000E+0005 722
 2.84560000000000E+0005 720
 2.85292000000000E+0005 732
 2.86040000000000E+0005 748
 2.86768000000000E+0005 728
 2.87506000000000E+0005 738
 2.88265000000000E+0005 759
 2.89034000000000E+0005 769
 2.89766000000000E+0005 732
 2.90512000000000E+0005 746
 2.91260000000000E+0005 748
 2.91976000000000E+0005 716
 2.92708000000000E+0005 732
 2.93452000000000E+0005 744
 2.94174000000000E+0005 722
 2.94908000000000E+0005 734
 2.95646000000000E+0005 738
 2.96388000000000E+0005 742
 2.97114000000000E+0005 726
 2.97848000000000E+0005 734
 2.98564000000000E+0005 716
 2.99267000000000E+0005 703
 2.99956000000000E+0005 689
 3.00631000000000E+0005 675
 3.01304000000000E+0005 673
 3.01962000000000E+0005 658
 3.02590000000000E+0005 628
 3.03224000000000E+0005 634
 3.03851000000000E+0005 627
 3.04499000000000E+0005 648
 3.05165000000000E+0005 666
 3.05848000000000E+0005 683
 3.06535000000000E+0005 687
 3.07245000000000E+0005 710
 3.07959000000000E+0005 714
 3.08693000000000E+0005 734
 3.09443000000000E+0005 750
 3.10224000000000E+0005 781
 3.10966000000000E+0005 742
 3.11723000000000E+0005 757
 3.12494000000000E+0005 771
 3.13249000000000E+0005 755
 3.13987000000000E+0005 738
 3.14740000000000E+0005 753
 3.15503000000000E+0005 763
 3.16241000000000E+0005 738
 3.16989000000000E+0005 748
 3.17731000000000E+0005 742
 3.18484000000000E+0005 753
 3.19224000000000E+0005 740
 3.19977000000000E+0005 753
 3.20746000000000E+0005 769
 3.21480000000000E+0005 734
 3.22239000000000E+0005 759
 3.22979000000000E+0005 740
 3.23686000000000E+0005 707
 3.24387000000000E+0005 701
 3.25088000000000E+0005 701
 3.25775000000000E+0005 687
 3.26472000000000E+0005 697
 3.27173000000000E+0005 701
 3.27870000000000E+0005 697
 3.28573000000000E+0005 703
 3.29280000000000E+0005 707
 3.29996000000000E+0005 716
 3.30724000000000E+0005 728
 3.31454000000000E+0005 730
 3.32188000000000E+0005 734
 3.32930000000000E+0005 742
 3.33658000000000E+0005 728
 3.34396000000000E+0005 738
 3.35132000000000E+0005 736
 3.35856000000000E+0005 724
 3.36582000000000E+0005 726
 3.37320000000000E+0005 738
 3.38072000000000E+0005 752
 3.38804000000000E+0005 732
 3.39540000000000E+0005 736
 3.40286000000000E+0005 746
 3.41024000000000E+0005 738
 3.41770000000000E+0005 746
 3.42523000000000E+0005 753
 3.43253000000000E+0005 730
 3.43979000000000E+0005 726
 3.44699000000000E+0005 720
 3.45415000000000E+0005 716
 3.46124000000000E+0005 709
 3.46834000000000E+0005 710
 3.47560000000000E+0005 726
 3.48280000000000E+0005 720
 3.49018000000000E+0005 738
 3.49775000000000E+0005 757
 3.50550000000000E+0005 775
 3.51296000000000E+0005 746
 3.52057000000000E+0005 761
 3.52838000000000E+0005 781
 3.53588000000000E+0005 750
 3.54345000000000E+0005 757
 3.55120000000000E+0005 775
 3.55936000000000E+0005 816
 3.56705000000000E+0005 769
 3.57484000000000E+0005 779
 3.58269000000000E+0005 785
 3.59024000000000E+0005 755
 3.59793000000000E+0005 769
 3.60576000000000E+0005 783
 3.61341000000000E+0005 765
 3.62116000000000E+0005 775
 3.62909000000000E+0005 793
 3.63684000000000E+0005 775
 3.64437000000000E+0005 753
 3.65194000000000E+0005 757
 3.65957000000000E+0005 763
 3.66697000000000E+0005 740
 3.67441000000000E+0005 744
 3.68191000000000E+0005 750
 3.68931000000000E+0005 740
 3.69684000000000E+0005 753
 3.70459000000000E+0005 775
 3.71205000000000E+0005 746
 3.71980000000000E+0005 775
 3.72788000000000E+0005 808
 3.73608000000000E+0005 820
 3.74401000000000E+0005 793
 3.75231000000000E+0005 830
 3.76074000000000E+0005 843
 3.76878000000000E+0005 804
 3.77686000000000E+0005 808
 3.78498000000000E+0005 812
 3.79300000000000E+0005 802
 3.80073000000000E+0005 773
 3.80854000000000E+0005 781
 3.81629000000000E+0005 775
 3.82402000000000E+0005 773
 3.83195000000000E+0005 793
 3.83978000000000E+0005 783
 3.84749000000000E+0005 771
 3.85526000000000E+0005 777
 3.86260000000000E+0005 734
 3.86986000000000E+0005 726
 3.87681000000000E+0005 695
 3.88358000000000E+0005 677
 3.89016000000000E+0005 658
 3.89680000000000E+0005 664
 3.90353000000000E+0005 673
 3.91077000000000E+0005 724
 3.91873000000000E+0005 796
 3.92636000000000E+0005 763
 3.93432000000000E+0005 796
 3.94238000000000E+0005 806
 3.95007000000000E+0005 769
 3.95762000000000E+0005 755
 3.96517000000000E+0005 755
 3.97280000000000E+0005 763
 3.98014000000000E+0005 734
 3.98758000000000E+0005 744
 3.99517000000000E+0005 759
 4.00257000000000E+0005 740
 4.01012000000000E+0005 755
 4.01781000000000E+0005 769
 4.02558000000000E+0005 777
 4.03311000000000E+0005 753
 4.04074000000000E+0005 763
 4.04859000000000E+0005 785
 4.05614000000000E+0005 755
 4.06385000000000E+0005 771
 4.07154000000000E+0005 769
 4.07913000000000E+0005 759
 4.08645000000000E+0005 732
 4.09379000000000E+0005 734
 4.10131000000000E+0005 752
 4.10863000000000E+0005 732
 4.11609000000000E+0005 746
 4.12366000000000E+0005 757
 4.13112000000000E+0005 746
 4.13867000000000E+0005 755
 4.14654000000000E+0005 787
 4.15402000000000E+0005 748
 4.16152000000000E+0005 750
 4.16911000000000E+0005 759
 4.17684000000000E+0005 773
 4.18430000000000E+0005 746
 4.19183000000000E+0005 753
 4.19956000000000E+0005 773
 4.20704000000000E+0005 748
 4.21448000000000E+0005 744
 4.22182000000000E+0005 734
 4.22898000000000E+0005 716
 4.23626000000000E+0005 728
 4.24348000000000E+0005 722
 4.25084000000000E+0005 736
 4.25818000000000E+0005 734
 4.26570000000000E+0005 752
 4.27345000000000E+0005 775
 4.28100000000000E+0005 755
 4.28877000000000E+0005 777
 4.29664000000000E+0005 787
 4.30437000000000E+0005 773
 4.31228000000000E+0005 791
 4.32044000000000E+0005 816
 4.32878000000000E+0005 834
 4.33651000000000E+0005 773
 4.34434000000000E+0005 783
 4.35225000000000E+0005 791
 4.35988000000000E+0005 763
 4.36755000000000E+0005 767
 4.37536000000000E+0005 781
 4.38289000000000E+0005 753
 4.39042000000000E+0005 753
 4.39805000000000E+0005 763
 4.40560000000000E+0005 755
 4.41296000000000E+0005 736
 4.42030000000000E+0005 734
 4.42762000000000E+0005 732
 4.43490000000000E+0005 728
 4.44232000000000E+0005 742
 4.44984000000000E+0005 752
 4.45749000000000E+0005 765
 4.46487000000000E+0005 738
 4.47246000000000E+0005 759
 4.47999000000000E+0005 753
 4.48733000000000E+0005 734
 4.49488000000000E+0005 755
 4.50263000000000E+0005 775
 4.51009000000000E+0005 746
 4.51772000000000E+0005 763
 4.52541000000000E+0005 769
 4.53306000000000E+0005 765
 4.54061000000000E+0005 755
 4.54816000000000E+0005 755
 4.55562000000000E+0005 746
 4.56292000000000E+0005 730
 4.57028000000000E+0005 736
 4.57774000000000E+0005 746
 4.58504000000000E+0005 730
 4.59244000000000E+0005 740
 4.59986000000000E+0005 742
 4.60720000000000E+0005 734
 4.61466000000000E+0005 746
 4.62210000000000E+0005 744
 4.62963000000000E+0005 753
 4.63707000000000E+0005 744
 4.64449000000000E+0005 742
 4.65189000000000E+0005 740
 4.65921000000000E+0005 732
 4.66667000000000E+0005 746
 4.67415000000000E+0005 748
 4.68143000000000E+0005 728
 4.68891000000000E+0005 748
 4.69656000000000E+0005 765
 4.70421000000000E+0005 765
 4.71190000000000E+0005 769
 4.71975000000000E+0005 785
 4.72766000000000E+0005 791
 4.73519000000000E+0005 753
 4.74278000000000E+0005 759
 4.75028000000000E+0005 750
 4.75760000000000E+0005 732
 4.76496000000000E+0005 736
 4.77230000000000E+0005 734
 4.77970000000000E+0005 740
 4.78706000000000E+0005 736
 4.79456000000000E+0005 750
 4.80229000000000E+0005 773
 4.80990000000000E+0005 761
 4.81773000000000E+0005 783
 4.82562000000000E+0005 789
 4.83364000000000E+0005 802
 4.84155000000000E+0005 791
 4.84983000000000E+0005 828
 4.85813000000000E+0005 830
 4.86586000000000E+0005 773
 4.87359000000000E+0005 773
 4.88140000000000E+0005 781
 4.88919000000000E+0005 779
 4.89676000000000E+0005 757
 4.90441000000000E+0005 765
 4.91212000000000E+0005 771
 4.91964000000000E+0005 752
 4.92723000000000E+0005 759
 4.93480000000000E+0005 757
 4.94220000000000E+0005 740
 4.94962000000000E+0005 742
 4.95712000000000E+0005 750
 4.96446000000000E+0005 734
 4.97199000000000E+0005 753
 4.97958000000000E+0005 759
 4.98725000000000E+0005 767
 4.99475000000000E+0005 750
 5.00240000000000E+0005 765
 5.01023000000000E+0005 783
 5.01784000000000E+0005 761
 5.02545000000000E+0005 761
 5.03310000000000E+0005 765
 5.04052000000000E+0005 742
 5.04798000000000E+0005 746
 5.05544000000000E+0005 746
 5.06260000000000E+0005 716
 5.07004000000000E+0005 744
 5.07748000000000E+0005 744
 5.08503000000000E+0005 755
 5.09256000000000E+0005 753
 5.10023000000000E+0005 767
 5.10812000000000E+0005 789
 5.11564000000000E+0005 752
 5.12325000000000E+0005 761
 5.13086000000000E+0005 761
 5.13845000000000E+0005 759
 5.14604000000000E+0005 759
 5.15365000000000E+0005 761
 5.16144000000000E+0005 779
 5.16890000000000E+0005 746
 5.17651000000000E+0005 761
 5.18416000000000E+0005 765
 5.19156000000000E+0005 740
 5.19900000000000E+0005 744
 5.20642000000000E+0005 742
 5.21395000000000E+0005 753
 5.22135000000000E+0005 740
 5.22900000000000E+0005 765
 5.23681000000000E+0005 781
 5.24427000000000E+0005 746
 5.25202000000000E+0005 775
 5.25977000000000E+0005 775
 5.26740000000000E+0005 763
 5.27492000000000E+0005 752
 5.28245000000000E+0005 753
 5.29000000000000E+0005 755
 5.29744000000000E+0005 744
 5.30490000000000E+0005 746
 5.31251000000000E+0005 761
 5.31987000000000E+0005 736
 5.32735000000000E+0005 748
 5.33481000000000E+0005 746
 5.34223000000000E+0005 742
 5.34965000000000E+0005 742
 5.35711000000000E+0005 746
 5.36463000000000E+0005 752
 5.37199000000000E+0005 736
 5.37949000000000E+0005 750
 5.38699000000000E+0005 750
 5.39431000000000E+0005 732
 5.40175000000000E+0005 744
 5.40909000000000E+0005 734
 5.41643000000000E+0005 734
 5.42383000000000E+0005 740
 5.43140000000000E+0005 757
 5.43901000000000E+0005 761
 5.44660000000000E+0005 759
 5.45445000000000E+0005 785
 5.46243000000000E+0005 798
 5.47030000000000E+0005 787
 5.47782000000000E+0005 752
 5.48545000000000E+0005 763
 5.49304000000000E+0005 759
 5.50038000000000E+0005 734
 5.50780000000000E+0005 742
 5.51530000000000E+0005 750
 5.52282000000000E+0005 752
 5.53026000000000E+0005 744
 5.53762000000000E+0005 736
 5.54502000000000E+0005 740
 5.55242000000000E+0005 740
 5.56003000000000E+0005 761
 5.56774000000000E+0005 771
 5.57535000000000E+0005 761
 5.58312000000000E+0005 777
 5.59116000000000E+0005 804
 5.59918000000000E+0005 802
 5.60687000000000E+0005 769
 5.61472000000000E+0005 785
 5.62266000000000E+0005 794
 5.63033000000000E+0005 767
 5.63788000000000E+0005 755
 5.64559000000000E+0005 771
 5.65361000000000E+0005 802
 5.66140000000000E+0005 779
 5.66925000000000E+0005 785
 5.67721000000000E+0005 796
 5.68486000000000E+0005 765
 5.69259000000000E+0005 773
 5.70046000000000E+0005 787
 5.70872000000000E+0005 826
 5.71655000000000E+0005 783
 5.72485000000000E+0005 830
 5.73334000000000E+0005 849
 5.74177000000000E+0005 843
 5.74973000000000E+0005 796
 5.75787000000000E+0005 814
 5.76599000000000E+0005 812
 5.77374000000000E+0005 775
 5.78135000000000E+0005 761
 5.78879000000000E+0005 744
 5.79634000000000E+0005 755
 5.80376000000000E+0005 742
 5.81118000000000E+0005 742
 5.81868000000000E+0005 750
 5.82620000000000E+0005 752
 5.83393000000000E+0005 773
 5.84182000000000E+0005 789
 5.84953000000000E+0005 771
 5.85710000000000E+0005 757
 5.86463000000000E+0005 753
 5.87175000000000E+0005 712
 5.87913000000000E+0005 738
 5.88678000000000E+0005 765
 5.89467000000000E+0005 789
 5.90238000000000E+0005 771
 5.91015000000000E+0005 777
 5.91802000000000E+0005 787
 5.92604000000000E+0005 802
 5.93359000000000E+0005 755
 5.94120000000000E+0005 761
 5.94879000000000E+0005 759
 5.95623000000000E+0005 744
 5.96369000000000E+0005 746
 5.97115000000000E+0005 746
 5.97843000000000E+0005 728
 5.98571000000000E+0005 728
 5.99301000000000E+0005 730
 6.00043000000000E+0005 742
 6.00765000000000E+0005 722
 6.01497000000000E+0005 732
 6.02239000000000E+0005 742
 6.03006000000000E+0005 767
 6.03752000000000E+0005 746
 6.04505000000000E+0005 753
 6.05262000000000E+0005 757
 6.05998000000000E+0005 736
 6.06750000000000E+0005 752
 6.07505000000000E+0005 755
 6.08257000000000E+0005 752
 6.09003000000000E+0005 746
 6.09756000000000E+0005 753
 6.10525000000000E+0005 769
 6.11273000000000E+0005 748
 6.12019000000000E+0005 746
 6.12792000000000E+0005 773
 6.13581000000000E+0005 789
 6.14346000000000E+0005 765
 6.15101000000000E+0005 755
 6.15858000000000E+0005 757
 6.16633000000000E+0005 775
 6.17377000000000E+0005 744
 6.18121000000000E+0005 744
 6.18859000000000E+0005 738
 6.19583000000000E+0005 724
 6.20317000000000E+0005 734
 6.21049000000000E+0005 732
 6.21769000000000E+0005 720
 6.22507000000000E+0005 738
 6.23259000000000E+0005 752
 6.24014000000000E+0005 755
 6.24789000000000E+0005 775
 6.25570000000000E+0005 781
 6.26323000000000E+0005 753
 6.27076000000000E+0005 753
 6.27814000000000E+0005 738
 6.28548000000000E+0005 734
 6.29270000000000E+0005 722
 6.29990000000000E+0005 720
 6.30704000000000E+0005 714
 6.31414000000000E+0005 710
 6.32132000000000E+0005 718
 6.32854000000000E+0005 722
 6.33602000000000E+0005 748
 6.34359000000000E+0005 757
 6.35128000000000E+0005 769
 6.35942000000000E+0005 814
 6.36809000000000E+0005 867
 6.37602000000000E+0005 793
 6.38410000000000E+0005 808
 6.39236000000000E+0005 826
 6.40005000000000E+0005 769
 6.40760000000000E+0005 755
 6.41523000000000E+0005 763
 6.42300000000000E+0005 777
 6.43059000000000E+0005 759
 6.43824000000000E+0005 765
 6.44595000000000E+0005 771
 6.45368000000000E+0005 773
 6.46118000000000E+0005 750
 6.46868000000000E+0005 750
 6.47621000000000E+0005 753
 6.48349000000000E+0005 728
 6.49079000000000E+0005 730
 6.49791000000000E+0005 712
 6.50503000000000E+0005 712
 6.51231000000000E+0005 728
 6.51951000000000E+0005 720
 6.52683000000000E+0005 732
 6.53436000000000E+0005 753
 6.54223000000000E+0005 787
 6.55049000000000E+0005 826
 6.55838000000000E+0005 789
 6.56632000000000E+0005 794
 6.57440000000000E+0005 808
 6.58250000000000E+0005 810
 6.59027000000000E+0005 777
 6.59794000000000E+0005 767
 6.60581000000000E+0005 787
 6.61375000000000E+0005 794
 6.62134000000000E+0005 759
 6.62907000000000E+0005 773
 6.63707000000000E+0005 800
 6.64460000000000E+0005 753
 6.65227000000000E+0005 767
 6.66002000000000E+0005 775
 6.66752000000000E+0005 750
 6.67505000000000E+0005 753
 6.68258000000000E+0005 753
 6.69017000000000E+0005 759
 6.69755000000000E+0005 738
 6.70479000000000E+0005 724
 6.71188000000000E+0005 709
 6.71883000000000E+0005 695
 6.72568000000000E+0005 685
 6.73247000000000E+0005 679
 6.73911000000000E+0005 664
 6.74555000000000E+0005 644
 6.75191000000000E+0005 636
 6.75810000000000E+0005 619
 6.76554000000000E+0005 744
 6.77263000000000E+0005 709
 6.77964000000000E+0005 701
 6.78641000000000E+0005 677
 6.79326000000000E+0005 685
 6.79995000000000E+0005 669
 6.80659000000000E+0005 664
 6.81301000000000E+0005 642
 6.81929000000000E+0005 628
 6.82556000000000E+0005 627
 6.83190000000000E+0005 634
 6.83850000000000E+0005 660
 6.84557000000000E+0005 707
 6.85260000000000E+0005 703
 6.85957000000000E+0005 697
 6.86648000000000E+0005 691
 6.87349000000000E+0005 701
 6.88083000000000E+0005 734
 6.88793000000000E+0005 710
 6.89507000000000E+0005 714
 6.90219000000000E+0005 712
 6.90949000000000E+0005 730
 6.91704000000000E+0005 755
 6.92414000000000E+0005 710
 6.93140000000000E+0005 726
 6.93880000000000E+0005 740
 6.94657000000000E+0005 777
 6.95410000000000E+0005 753
 6.96156000000000E+0005 746
 6.96921000000000E+0005 765
 6.97702000000000E+0005 781
 6.98473000000000E+0005 771
 6.99221000000000E+0005 748
 6.99963000000000E+0005 742
 7.00716000000000E+0005 753
 7.01495000000000E+0005 779
 7.02245000000000E+0005 750
 7.02997000000000E+0005 752
 7.03778000000000E+0005 781
 7.04582000000000E+0005 804
 7.05359000000000E+0005 777
 7.06130000000000E+0005 771
 7.06923000000000E+0005 793
 7.07725000000000E+0005 802
 7.08486000000000E+0005 761
 7.09249000000000E+0005 763
 7.10012000000000E+0005 763
 7.10793000000000E+0005 781
 7.11552000000000E+0005 759
 7.12327000000000E+0005 775
 7.13114000000000E+0005 787
 7.13879000000000E+0005 765
 7.14638000000000E+0005 759
 7.15417000000000E+0005 779
 7.16190000000000E+0005 773
 7.16936000000000E+0005 746
 7.17689000000000E+0005 753
 7.18444000000000E+0005 755
 7.19203000000000E+0005 759
 7.19960000000000E+0005 757
 7.20719000000000E+0005 759
 7.21482000000000E+0005 763
 7.22210000000000E+0005 728
 7.22944000000000E+0005 734
 7.23672000000000E+0005 728
 7.24416000000000E+0005 744
 7.25158000000000E+0005 742
 7.25919000000000E+0005 761
 7.26708000000000E+0005 789
 7.27479000000000E+0005 771
 7.28273000000000E+0005 794
 7.29093000000000E+0005 820
 7.29886000000000E+0005 793
 7.30659000000000E+0005 773
 7.31446000000000E+0005 787
 7.32233000000000E+0005 787
 7.32985000000000E+0005 752
 7.33737000000000E+0005 752
 7.34487000000000E+0005 750
 7.35254000000000E+0005 767
 7.36007000000000E+0005 753
 7.36780000000000E+0005 773
 7.37576000000000E+0005 796
 7.38374000000000E+0005 798
 7.39135000000000E+0005 761
 7.39914000000000E+0005 779
 7.40699000000000E+0005 785
 7.41458000000000E+0005 759
 7.42210000000000E+0005 752
 7.42965000000000E+0005 755
 7.43738000000000E+0005 773
 7.44484000000000E+0005 746
 7.45237000000000E+0005 753
 7.45996000000000E+0005 759
 7.46749000000000E+0005 753
 7.47493000000000E+0005 744
 7.48250000000000E+0005 757
 7.49025000000000E+0005 775
 7.49788000000000E+0005 763
 7.50567000000000E+0005 779
 7.51367000000000E+0005 800
 7.52169000000000E+0005 802
 7.52930000000000E+0005 761
 7.53701000000000E+0005 771
 7.54478000000000E+0005 777
 7.55233000000000E+0005 755
 7.55992000000000E+0005 759
 7.56763000000000E+0005 771
 7.57554000000000E+0005 791
 7.58335000000000E+0005 781
 7.59110000000000E+0005 775
 7.59906000000000E+0005 796
 7.60749000000000E+0005 843
 7.61538000000000E+0005 789
 7.62325000000000E+0005 787
 7.63110000000000E+0005 785
 7.63889000000000E+0005 779
 7.64641000000000E+0005 752
 7.65410000000000E+0005 769
 7.66177000000000E+0005 767
 7.66940000000000E+0005 763
 7.67707000000000E+0005 767
 7.68494000000000E+0005 787
 7.69298000000000E+0005 804
 7.70081000000000E+0005 783
 7.70885000000000E+0005 804
 7.71691000000000E+0005 806
 7.72484000000000E+0005 793
 7.73255000000000E+0005 771
 7.74046000000000E+0005 791
 7.74848000000000E+0005 802
 7.75627000000000E+0005 779
 7.76400000000000E+0005 773
 7.77179000000000E+0005 779
 7.77950000000000E+0005 771
 7.78717000000000E+0005 767
 7.79451000000000E+0005 734
 7.80177000000000E+0005 726
 7.80895000000000E+0005 718
 7.81623000000000E+0005 728
 7.82347000000000E+0005 724
 7.83071000000000E+0005 724
 7.83813000000000E+0005 742
 7.84566000000000E+0005 753
 7.85351000000000E+0005 785
 7.86106000000000E+0005 755
 7.86902000000000E+0005 796
 7.87706000000000E+0005 804
 7.88485000000000E+0005 779
 7.89254000000000E+0005 769
 7.90043000000000E+0005 789
 7.90851000000000E+0005 808
 7.91638000000000E+0005 787
 7.92409000000000E+0005 771
 7.93188000000000E+0005 779
 7.93965000000000E+0005 777
 7.94713000000000E+0005 748
 7.95470000000000E+0005 757
 7.96233000000000E+0005 763
 7.97008000000000E+0005 775
 7.97758000000000E+0005 750
 7.98519000000000E+0005 761
 7.99286000000000E+0005 767
 8.00036000000000E+0005 750
 8.00788000000000E+0005 752
 8.01545000000000E+0005 757
 8.02293000000000E+0005 748
 8.03017000000000E+0005 724
 8.03749000000000E+0005 732
 8.04483000000000E+0005 734
 8.05221000000000E+0005 738
 8.05965000000000E+0005 744
 8.06709000000000E+0005 744
 8.07464000000000E+0005 755
 8.08217000000000E+0005 753
 8.08970000000000E+0005 753
 8.09745000000000E+0005 775
 8.10538000000000E+0005 793
 8.11290000000000E+0005 752
 8.12038000000000E+0005 748
 8.12782000000000E+0005 744
 8.13530000000000E+0005 748
 8.14266000000000E+0005 736
 8.15008000000000E+0005 742
 8.15756000000000E+0005 748
 8.16500000000000E+0005 744
 8.17242000000000E+0005 742
 8.17992000000000E+0005 750
 8.18755000000000E+0005 763
 8.19489000000000E+0005 734
 8.20227000000000E+0005 738
 8.20977000000000E+0005 750
 8.21738000000000E+0005 761
 8.22472000000000E+0005 734
 8.23210000000000E+0005 738
 8.23944000000000E+0005 734
 8.24666000000000E+0005 722
 8.25392000000000E+0005 726
 8.26116000000000E+0005 724
 8.26864000000000E+0005 748
 8.27614000000000E+0005 750
 8.28364000000000E+0005 750
 8.29121000000000E+0005 757
 8.29900000000000E+0005 779
 8.30657000000000E+0005 757
 8.31409000000000E+0005 752
 8.32159000000000E+0005 750
 8.32912000000000E+0005 753
 8.33654000000000E+0005 742
 8.34384000000000E+0005 730
 8.35126000000000E+0005 742
 8.35860000000000E+0005 734
 8.36600000000000E+0005 740
 8.37344000000000E+0005 744
 8.38119000000000E+0005 775
 8.38882000000000E+0005 763
 8.39671000000000E+0005 789
 8.40473000000000E+0005 802
 8.41277000000000E+0005 804
 8.42032000000000E+0005 755
 8.42795000000000E+0005 763
 8.43580000000000E+0005 785
 8.44376000000000E+0005 796
 8.45163000000000E+0005 787
 8.45961000000000E+0005 798
 8.46787000000000E+0005 826
 8.47599000000000E+0005 812
 8.48374000000000E+0005 775
 8.49155000000000E+0005 781
 8.49936000000000E+0005 781
 8.50688000000000E+0005 752
 8.51438000000000E+0005 750
 8.52182000000000E+0005 744
 8.52945000000000E+0005 763
 8.53685000000000E+0005 740
 8.54421000000000E+0005 736
 8.55163000000000E+0005 742
 8.55915000000000E+0005 752
 8.56663000000000E+0005 748
 8.57415000000000E+0005 752
 8.58198000000000E+0005 783
 8.58979000000000E+0005 781
 8.59754000000000E+0005 775
 8.60539000000000E+0005 785
 8.61351000000000E+0005 812
 8.62134000000000E+0005 783
 8.62913000000000E+0005 779
 8.63711000000000E+0005 798
 8.64523000000000E+0005 812
 8.65284000000000E+0005 761
 8.66039000000000E+0005 755
 8.66789000000000E+0005 750
 8.67539000000000E+0005 750
 8.68281000000000E+0005 742
 8.69038000000000E+0005 757
 8.69819000000000E+0005 781
 8.70598000000000E+0005 779
 8.71363000000000E+0005 765
 8.72148000000000E+0005 785
 8.72929000000000E+0005 781
 8.73690000000000E+0005 761
 8.74455000000000E+0005 765
 8.75234000000000E+0005 779
 8.75999000000000E+0005 765
 8.76760000000000E+0005 761
 8.77517000000000E+0005 757
 8.78278000000000E+0005 761
 8.79033000000000E+0005 755
 8.79790000000000E+0005 757
 8.80555000000000E+0005 765
 8.81336000000000E+0005 781
 8.82109000000000E+0005 773
 8.82884000000000E+0005 775
 8.83673000000000E+0005 789
 8.84477000000000E+0005 804
 8.85250000000000E+0005 773
 8.86027000000000E+0005 777
 8.86816000000000E+0005 789
 8.87599000000000E+0005 783
 8.88362000000000E+0005 763
 8.89135000000000E+0005 773
 8.89914000000000E+0005 779
 8.90683000000000E+0005 769
 8.91446000000000E+0005 763
 8.92221000000000E+0005 775
 8.93025000000000E+0005 804
 8.93814000000000E+0005 789
 8.94593000000000E+0005 779
 8.95376000000000E+0005 783
 8.96157000000000E+0005 781
 8.96912000000000E+0005 755
 8.97671000000000E+0005 759
 8.98440000000000E+0005 769
 8.99219000000000E+0005 779
 8.99982000000000E+0005 763
 9.00755000000000E+0005 773
 9.01542000000000E+0005 787
 9.02346000000000E+0005 804
 9.03115000000000E+0005 769
 9.03906000000000E+0005 791
 9.04697000000000E+0005 791
 9.05470000000000E+0005 773
 9.06210000000000E+0005 740
 9.06934000000000E+0005 724
 9.07641000000000E+0005 707
 9.08342000000000E+0005 701
 9.09031000000000E+0005 689
 9.09697000000000E+0005 666
 9.10365000000000E+0005 668
 9.11042000000000E+0005 677
 9.11725000000000E+0005 683
 9.12422000000000E+0005 697
 9.13127000000000E+0005 705
 9.13839000000000E+0005 712
 9.14555000000000E+0005 716
 9.15271000000000E+0005 716
 9.16003000000000E+0005 732
 9.16758000000000E+0005 755
 9.17519000000000E+0005 761
 9.18249000000000E+0005 730
 9.18975000000000E+0005 726
 9.19705000000000E+0005 730
 9.20464000000000E+0005 759
 9.21202000000000E+0005 738
 9.21940000000000E+0005 738
 9.22678000000000E+0005 738
 9.23430000000000E+0005 752
 9.24156000000000E+0005 726
 9.24876000000000E+0005 720
 9.25606000000000E+0005 730
 9.26338000000000E+0005 732
 9.27080000000000E+0005 742
 9.27824000000000E+0005 744
 9.28576000000000E+0005 752
 9.29306000000000E+0005 730
 9.30050000000000E+0005 744
 9.30778000000000E+0005 728
 9.31492000000000E+0005 714
 9.32222000000000E+0005 730
 9.32962000000000E+0005 740
 9.33714000000000E+0005 752
 9.34464000000000E+0005 750
 9.35216000000000E+0005 752
 9.35997000000000E+0005 781
 9.36803000000000E+0005 806
 9.37570000000000E+0005 767
 9.38351000000000E+0005 781
 9.39126000000000E+0005 775
 9.39872000000000E+0005 746
 9.40620000000000E+0005 748
 9.41362000000000E+0005 742
 9.42102000000000E+0005 740
 9.42846000000000E+0005 744
 9.43592000000000E+0005 746
 9.44353000000000E+0005 761
 9.45105000000000E+0005 752
 9.45880000000000E+0005 775
 9.46671000000000E+0005 791
 9.47477000000000E+0005 806
 9.48250000000000E+0005 773
 9.49027000000000E+0005 777
 9.49810000000000E+0005 783
 9.50571000000000E+0005 761
 9.51323000000000E+0005 752
 9.52069000000000E+0005 746
 9.52822000000000E+0005 753
 9.53564000000000E+0005 742
 9.54312000000000E+0005 748
 9.55058000000000E+0005 746
 9.55808000000000E+0005 750
 9.56556000000000E+0005 748
 9.57306000000000E+0005 750
 9.58065000000000E+0005 759
 9.58848000000000E+0005 783
 9.59605000000000E+0005 757
 9.60376000000000E+0005 771
 9.61149000000000E+0005 773
 9.61924000000000E+0005 775
 9.62681000000000E+0005 757
 9.63444000000000E+0005 763
 9.64201000000000E+0005 757
 9.64962000000000E+0005 761
 9.65717000000000E+0005 755
 9.66508000000000E+0005 791
 9.67318000000000E+0005 810
 9.68089000000000E+0005 771
 9.68893000000000E+0005 804
 9.69727000000000E+0005 834
 9.70562000000000E+0005 835
 9.71355000000000E+0005 793
 9.72173000000000E+0005 818
 9.72993000000000E+0005 820
 9.73778000000000E+0005 785
 9.74559000000000E+0005 781
 9.75357000000000E+0005 798
 9.76161000000000E+0005 804
 9.76926000000000E+0005 765
 9.77693000000000E+0005 767
 9.78458000000000E+0005 765
 9.79210000000000E+0005 752
 9.79958000000000E+0005 748
 9.80700000000000E+0005 742
 9.81446000000000E+0005 746
 9.82182000000000E+0005 736
 9.82910000000000E+0005 728
 9.83619000000000E+0005 709
 9.84324000000000E+0005 705
 9.85031000000000E+0005 707
 9.85745000000000E+0005 714
 9.86444000000000E+0005 699
 9.87149000000000E+0005 705
 9.87865000000000E+0005 716
 9.88575000000000E+0005 710
 9.89303000000000E+0005 728
 9.90047000000000E+0005 744
 9.90802000000000E+0005 755
 9.91561000000000E+0005 759
 9.92340000000000E+0005 779
 9.93086000000000E+0005 746
 9.93836000000000E+0005 750
 9.94589000000000E+0005 753
 9.95362000000000E+0005 773
 9.96115000000000E+0005 753
 9.96853000000000E+0005 738
 9.97581000000000E+0005 728
 9.98336000000000E+0005 755
 9.99093000000000E+0005 757
 9.99870000000000E+0005 777
 1.00068800000000E+0006 818
 1.00147500000000E+0006 787
 1.00224600000000E+0006 771
 1.00302300000000E+0006 777
 1.00379600000000E+0006 773
 1.00453800000000E+0006 742
 1.00528200000000E+0006 744
 1.00602000000000E+0006 738
 1.00678700000000E+0006 767
 1.00754200000000E+0006 755
 1.00830900000000E+0006 767
 1.00908000000000E+0006 771
 1.00986300000000E+0006 783
 1.01060900000000E+0006 746
 1.01135500000000E+0006 746
 1.01209700000000E+0006 742
 1.01285200000000E+0006 755
 1.01359800000000E+0006 746
 1.01435700000000E+0006 759
 1.01511400000000E+0006 757
 1.01586000000000E+0006 746
 1.01659600000000E+0006 736
 1.01732400000000E+0006 728
 1.01806400000000E+0006 740
 1.01879400000000E+0006 730
 1.01952400000000E+0006 730
 1.02025400000000E+0006 730
 1.02096300000000E+0006 709
 1.02166600000000E+0006 703
 1.02235700000000E+0006 691
 1.02303400000000E+0006 677
 1.02370000000000E+0006 666
 1.02434400000000E+0006 644
 1.02498000000000E+0006 636
 1.02561400000000E+0006 634
 1.02625800000000E+0006 644
 1.02689400000000E+0006 636
 1.02753600000000E+0006 642
 1.02818400000000E+0006 648
 1.02883400000000E+0006 650
 1.02948200000000E+0006 648
 1.03013800000000E+0006 656
 1.03079200000000E+0006 654
 1.03145200000000E+0006 660
 1.03210400000000E+0006 652
 1.03277300000000E+0006 669
 1.03345400000000E+0006 681
 1.03414700000000E+0006 693
 1.03485000000000E+0006 703
 1.03558000000000E+0006 730
 1.03630000000000E+0006 720
 1.03704600000000E+0006 746
 1.03778200000000E+0006 736
 1.03853900000000E+0006 757
 1.03926500000000E+0006 726
 1.03998100000000E+0006 716
 1.04068400000000E+0006 703
 1.04141200000000E+0006 728
 1.04213600000000E+0006 724
 1.04285200000000E+0006 716
 1.04358200000000E+0006 730
 1.04433900000000E+0006 757
 1.04507900000000E+0006 740
 1.04582100000000E+0006 742
 1.04656900000000E+0006 748
 1.04729900000000E+0006 730
 1.04803100000000E+0006 732
 1.04874500000000E+0006 714
 1.04946900000000E+0006 724
 1.05017600000000E+0006 707
 1.05086900000000E+0006 693
 1.05156200000000E+0006 693
 1.05225700000000E+0006 695
 1.05295800000000E+0006 701
 1.05365300000000E+0006 695
 1.05435600000000E+0006 703
 1.05506600000000E+0006 710
 1.05577600000000E+0006 710
 1.05648100000000E+0006 705
 1.05720300000000E+0006 722
 1.05791300000000E+0006 710
 1.05862300000000E+0006 710
 1.05932400000000E+0006 701
 1.06003400000000E+0006 710
 1.06073300000000E+0006 699
 1.06143200000000E+0006 699
 1.06210300000000E+0006 671
 1.06275500000000E+0006 652
 1.06340300000000E+0006 648
 1.06406300000000E+0006 660
 1.06474600000000E+0006 683
 1.06541900000000E+0006 673
 1.06611400000000E+0006 695
 1.06684000000000E+0006 726
 1.06755400000000E+0006 714
 1.06826300000000E+0006 709
 1.06897700000000E+0006 714
 1.06971300000000E+0006 736
 1.07043100000000E+0006 718
 1.07114500000000E+0006 714
 1.07185700000000E+0006 712
 1.07258700000000E+0006 730
 1.07332500000000E+0006 738
 1.07404900000000E+0006 724
 1.07477300000000E+0006 724
 1.07549100000000E+0006 718
 1.07621700000000E+0006 726
 1.07693500000000E+0006 718
 1.07765300000000E+0006 718
 1.07836900000000E+0006 716
 1.07909100000000E+0006 722
 1.07981100000000E+0006 720
 1.08052300000000E+0006 712
 1.08124700000000E+0006 724
 1.08197500000000E+0006 728
 1.08270100000000E+0006 726
 1.08342300000000E+0006 722
 1.08415700000000E+0006 734
 1.08487700000000E+0006 720
 1.08560100000000E+0006 724
 1.08631500000000E+0006 714
 1.08706100000000E+0006 746
 1.08779100000000E+0006 730
 1.08853700000000E+0006 746
 1.08928300000000E+0006 746
 1.09004200000000E+0006 759
 1.09077400000000E+0006 732
 1.09151000000000E+0006 736
 1.09225200000000E+0006 742
 1.09297600000000E+0006 724
 1.09370400000000E+0006 728
 1.09442800000000E+0006 724
 1.09517400000000E+0006 746
 1.09590000000000E+0006 726
 1.09664400000000E+0006 744
 1.09739200000000E+0006 748
 1.09816300000000E+0006 771
 1.09891600000000E+0006 753
 1.09967300000000E+0006 757
 1.10043600000000E+0006 763
 1.10117200000000E+0006 736
 1.10191600000000E+0006 744
 1.10265400000000E+0006 738
 1.10339600000000E+0006 742
 1.10413800000000E+0006 742
 1.10489300000000E+0006 755
 1.10566200000000E+0006 769
 1.10641500000000E+0006 753
 1.10716100000000E+0006 746
 1.10789500000000E+0006 734
 1.10863500000000E+0006 740
 1.10937900000000E+0006 744
 1.11010700000000E+0006 728
 1.11084300000000E+0006 736
 1.11157500000000E+0006 732
 1.11232500000000E+0006 750
 1.11304900000000E+0006 724
 1.11376700000000E+0006 718
 1.11449700000000E+0006 730
 1.11519200000000E+0006 695
 1.11589100000000E+0006 699
 1.11658800000000E+0006 697
 1.11730000000000E+0006 712
 1.11800100000000E+0006 701
 1.11871300000000E+0006 712
 1.11944300000000E+0006 730
 1.12019100000000E+0006 748
 1.12096000000000E+0006 769
 1.12172500000000E+0006 765
 1.12249000000000E+0006 765
 1.12325900000000E+0006 769
 1.12398500000000E+0006 726
 1.12469700000000E+0006 712
 1.12537800000000E+0006 681
 1.12604000000000E+0006 662
 1.12668800000000E+0006 648
 1.12731300000000E+0006 625
 1.12792200000000E+0006 609
 1.12851900000000E+0006 597
 1.12911000000000E+0006 591
 1.12969400000000E+0006 584
 1.13026400000000E+0006 570
 1.13092600000000E+0006 662
 1.13158400000000E+0006 658
 1.13224000000000E+0006 656
 1.13288800000000E+0006 648
 1.13351300000000E+0006 625
 1.13414100000000E+0006 628
 1.13477700000000E+0006 636
 1.13542100000000E+0006 644
 1.13606500000000E+0006 644
 1.13672300000000E+0006 658
 1.13739400000000E+0006 671
 1.13806700000000E+0006 673
 1.13873600000000E+0006 669
 1.13940200000000E+0006 666
 1.14005400000000E+0006 652
 1.14070000000000E+0006 646
 1.14133400000000E+0006 634
 1.14195100000000E+0006 617
 1.14255400000000E+0006 603
 1.14314100000000E+0006 587
 1.14373200000000E+0006 591
 1.14437000000000E+0006 638
 1.14508800000000E+0006 718
 1.14583000000000E+0006 742
 1.14661900000000E+0006 789
 1.14738000000000E+0006 761
 1.14816300000000E+0006 783
 1.14896900000000E+0006 806
 1.14972100000000E+0006 752
 1.15046100000000E+0006 740
 1.15115000000000E+0006 689
 1.15181000000000E+0006 660
 1.15247000000000E+0006 660
 1.15314100000000E+0006 671
 1.15382800000000E+0006 687
 1.15457800000000E+0006 750
 1.15532400000000E+0006 746
 1.15606400000000E+0006 740
 1.15683100000000E+0006 767
 1.15759200000000E+0006 761
 1.15832600000000E+0006 734
 1.15902900000000E+0006 703
 1.15972400000000E+0006 695
 1.16044800000000E+0006 724
 1.16124400000000E+0006 796
 1.16208100000000E+0006 837
 1.16292400000000E+0006 843
 1.16373000000000E+0006 806
 1.16448500000000E+0006 755
 1.16522100000000E+0006 736
 1.16594500000000E+0006 724
 1.16664800000000E+0006 703
 1.16733500000000E+0006 687
 1.16799900000000E+0006 664
 1.16864100000000E+0006 642
 1.16927700000000E+0006 636
 1.16991100000000E+0006 634
 1.17054300000000E+0006 632
 1.17118900000000E+0006 646
 1.17182900000000E+0006 640
 1.17246100000000E+0006 632
 1.17310700000000E+0006 646
 1.17374700000000E+0006 640
 1.17439500000000E+0006 648
 1.17506100000000E+0006 666
 1.17572700000000E+0006 666
 1.17638900000000E+0006 662
 1.17706200000000E+0006 673
 1.17773700000000E+0006 675
 1.17842400000000E+0006 687
 1.17911300000000E+0006 689
 1.17981600000000E+0006 703
 1.18052600000000E+0006 710
 1.18122300000000E+0006 697
 1.18191200000000E+0006 689
 1.18258900000000E+0006 677
 1.18326400000000E+0006 675
 1.18392000000000E+0006 656
 1.18457800000000E+0006 658
 1.18524700000000E+0006 669
 1.18590700000000E+0006 660
 1.18656900000000E+0006 662
 1.18723800000000E+0006 669
 1.18790600000000E+0006 668
 1.18858700000000E+0006 681
 1.18926200000000E+0006 675
 1.18993500000000E+0006 673
 1.19058300000000E+0006 648
 1.19123300000000E+0006 650
 1.19189500000000E+0006 662
 1.19258600000000E+0006 691
 1.19326700000000E+0006 681
 1.19396200000000E+0006 695
 1.19466900000000E+0006 707
 1.19537400000000E+0006 705
 1.19609000000000E+0006 716
 1.19680200000000E+0006 712
 1.19751400000000E+0006 712
 1.19821900000000E+0006 705
 1.19892600000000E+0006 707
 1.19962700000000E+0006 701
 1.20032600000000E+0006 699
 1.20102900000000E+0006 703
 1.20172400000000E+0006 695
 1.20242900000000E+0006 705
 1.20313200000000E+0006 703
 1.20383500000000E+0006 703
 1.20453000000000E+0006 695
 1.20522500000000E+0006 695
 1.20592400000000E+0006 699
 1.20662300000000E+0006 699
 1.20733700000000E+0006 714
 1.20805100000000E+0006 714
 1.20877700000000E+0006 726
 1.20949300000000E+0006 716
 1.21021500000000E+0006 722
 1.21093900000000E+0006 724
 1.21164800000000E+0006 709
 1.21236800000000E+0006 720
 1.21308400000000E+0006 716
 1.21380600000000E+0006 722
 1.21452000000000E+0006 714
 1.21523400000000E+0006 714
 1.21595800000000E+0006 724
 1.21668600000000E+0006 728
 1.21742600000000E+0006 740
 1.21815800000000E+0006 732
 1.21888200000000E+0006 724
 1.21959600000000E+0006 714
 1.22030800000000E+0006 712
 1.22102600000000E+0006 718
 1.22177400000000E+0006 748
 1.22251800000000E+0006 744
 1.22326800000000E+0006 750
 1.22401200000000E+0006 744
 1.22473200000000E+0006 720
 1.22546000000000E+0006 728
 1.22617800000000E+0006 718
 1.22689600000000E+0006 718
 1.22762200000000E+0006 726
 1.22834400000000E+0006 722
 1.22908000000000E+0006 736
 1.22980600000000E+0006 726
 1.23053800000000E+0006 732
 1.23126000000000E+0006 722
 1.23198200000000E+0006 722
 1.23270800000000E+0006 726
 1.23343800000000E+0006 730
 1.23416400000000E+0006 726
 1.23487400000000E+0006 710
 1.23558300000000E+0006 709
 1.23628600000000E+0006 703
 1.23700600000000E+0006 720
 1.23771600000000E+0006 710
 1.23842500000000E+0006 709
 1.23913400000000E+0006 709
 1.23984400000000E+0006 710
 1.24055600000000E+0006 712
 1.24126800000000E+0006 712
 1.24198800000000E+0006 720
 1.24270000000000E+0006 712
 1.24341800000000E+0006 718
 1.24413200000000E+0006 714
 1.24485000000000E+0006 718
 1.24557400000000E+0006 724
 1.24630000000000E+0006 726
 1.24703400000000E+0006 734
 1.24779100000000E+0006 757
 1.24854800000000E+0006 757
 1.24929400000000E+0006 746
 1.25004200000000E+0006 748
 1.25079000000000E+0006 748
 1.25151600000000E+0006 726
 1.25224200000000E+0006 726
 1.25296000000000E+0006 718
 1.25369600000000E+0006 736
 1.25441800000000E+0006 722
 1.25515000000000E+0006 732
 1.25589800000000E+0006 748
 1.25666100000000E+0006 763
 1.25742600000000E+0006 765
 1.25820700000000E+0006 781
 1.25901900000000E+0006 812
 1.25978400000000E+0006 765
 1.26054300000000E+0006 759
 1.26129300000000E+0006 750
 1.26203500000000E+0006 742
 1.26275500000000E+0006 720
 1.26346700000000E+0006 712
 1.26418900000000E+0006 722
 1.26490700000000E+0006 718
 1.26564700000000E+0006 740
 1.26637300000000E+0006 726
 1.26711300000000E+0006 740
 1.26784300000000E+0006 730
 1.26859600000000E+0006 753
 1.26934900000000E+0006 753
 1.27008100000000E+0006 732
 1.27082500000000E+0006 744
 1.27157300000000E+0006 748
 1.27232100000000E+0006 748
 1.27303300000000E+0006 712
 1.27375900000000E+0006 726
 1.27447900000000E+0006 720
 1.27518000000000E+0006 701
 1.27589200000000E+0006 712
 1.27660200000000E+0006 710
 1.27732800000000E+0006 726
 1.27804800000000E+0006 720
 1.27876400000000E+0006 716
 1.27950200000000E+0006 738
 1.28025900000000E+0006 757
 1.28099900000000E+0006 740
 1.28175100000000E+0006 752
 1.28250800000000E+0006 757
 1.28326500000000E+0006 757
 1.28401700000000E+0006 752
 1.28476300000000E+0006 746
 1.28551800000000E+0006 755
 1.28623800000000E+0006 720
 1.28696800000000E+0006 730
 1.28767800000000E+0006 710
 1.28838800000000E+0006 710
 1.28910000000000E+0006 712
 1.28981200000000E+0006 712
 1.29052400000000E+0006 712
 1.29125600000000E+0006 732
 1.29197800000000E+0006 722
 1.29270000000000E+0006 722
 1.29342000000000E+0006 720
 1.29413600000000E+0006 716
 1.29485000000000E+0006 714
 1.29556800000000E+0006 718
 1.29629600000000E+0006 728
 1.29702200000000E+0006 726
 1.29775200000000E+0006 730
 1.29848000000000E+0006 728
 1.29920800000000E+0006 728
 1.29995600000000E+0006 748
 1.30069600000000E+0006 740
 1.30144800000000E+0006 752
 1.30219600000000E+0006 748
 1.30292600000000E+0006 730
 1.30367000000000E+0006 744
 1.30441600000000E+0006 746
 1.30518300000000E+0006 767
 1.30591900000000E+0006 736
 1.30666500000000E+0006 746
 1.30741300000000E+0006 748
 1.30814700000000E+0006 734
 1.30888500000000E+0006 738
 1.30962700000000E+0006 742
 1.31036100000000E+0006 734
 1.31110100000000E+0006 740
 1.31181500000000E+0006 714
 1.31253300000000E+0006 718
 1.31326700000000E+0006 734
 1.31401300000000E+0006 746
 1.31477000000000E+0006 757
 1.31549000000000E+0006 720
 1.31622400000000E+0006 734
 1.31694000000000E+0006 716
 1.31762300000000E+0006 683
 1.31835500000000E+0006 732
 1.31904200000000E+0006 687
 1.31972300000000E+0006 681
 1.32036900000000E+0006 646
 1.32099900000000E+0006 630
 1.32161000000000E+0006 611
 1.32221300000000E+0006 603
 1.32281400000000E+0006 601
 1.32343900000000E+0006 625
 1.32406900000000E+0006 630
 1.32470100000000E+0006 632
 1.32533300000000E+0006 632
 1.32600400000000E+0006 671
 1.32673000000000E+0006 726
 1.32744000000000E+0006 710
 1.32822900000000E+0006 789
 1.32908200000000E+0006 853
 1.32991600000000E+0006 834
 1.33069500000000E+0006 779
 1.33150900000000E+0006 814
 1.33232500000000E+0006 816
 1.33307700000000E+0006 752
 1.33382900000000E+0006 752
 1.33457900000000E+0006 750
 1.33530300000000E+0006 724
 1.33603500000000E+0006 732
 1.33676300000000E+0006 728
 1.33749900000000E+0006 736
 1.33823300000000E+0006 734
 1.33898600000000E+0006 753
 1.33974900000000E+0006 763
 1.34048500000000E+0006 736
 1.34124200000000E+0006 757
 1.34199400000000E+0006 752
 1.34272200000000E+0006 728
 1.34346200000000E+0006 740
 1.34419800000000E+0006 736
 1.34494000000000E+0006 742
 1.34567200000000E+0006 732
 1.34641200000000E+0006 740
 1.34714600000000E+0006 734
 1.34788600000000E+0006 740
 1.34862600000000E+0006 740
 1.34938100000000E+0006 755
 1.35014800000000E+0006 767
 1.35089600000000E+0006 748
 1.35165300000000E+0006 757
 1.35240300000000E+0006 750
 1.35313700000000E+0006 734
 1.35387300000000E+0006 736
 1.35461500000000E+0006 742
 1.35535100000000E+0006 736
 1.35608300000000E+0006 732
 1.35683300000000E+0006 750
 1.35759000000000E+0006 757
 1.35835700000000E+0006 767
 1.35912200000000E+0006 765
 1.35989300000000E+0006 771
 1.36067800000000E+0006 785
 1.36142600000000E+0006 748
 1.36218100000000E+0006 755
 1.36290900000000E+0006 728
 1.36362100000000E+0006 712
 1.36432600000000E+0006 705
 1.36503300000000E+0006 707
 1.36576300000000E+0006 730
 1.36649700000000E+0006 734
 1.36721900000000E+0006 722
 1.36796700000000E+0006 748
 1.36870100000000E+0006 734
 1.36943500000000E+0006 734
 1.37017100000000E+0006 736
 1.37091700000000E+0006 746
 1.37166100000000E+0006 744
 1.37241100000000E+0006 750
 1.37314500000000E+0006 734
 1.37387100000000E+0006 726
 1.37460300000000E+0006 732
 1.37532900000000E+0006 726
 1.37607100000000E+0006 742
 1.37678700000000E+0006 716
 1.37751500000000E+0006 728
 1.37823100000000E+0006 716
 1.37894700000000E+0006 716
 1.37964600000000E+0006 699
 1.38034900000000E+0006 703
 1.38102200000000E+0006 673
 1.38169900000000E+0006 677
 1.38237600000000E+0006 677
 1.38304400000000E+0006 668
 1.38371200000000E+0006 668
 1.38436800000000E+0006 656
 1.38501800000000E+0006 650
 1.38564600000000E+0006 628
 1.38626900000000E+0006 623
 1.38688400000000E+0006 615
 1.38750700000000E+0006 623
 1.38815700000000E+0006 650
 1.38879100000000E+0006 634
 1.38943900000000E+0006 648
 1.39012000000000E+0006 681
 1.39079300000000E+0006 673
 1.39148800000000E+0006 695
 1.39224900000000E+0006 761
 1.39306100000000E+0006 812
 1.39385500000000E+0006 794
 1.39466700000000E+0006 812
 1.39549900000000E+0006 832
 1.39626800000000E+0006 769
 1.39705100000000E+0006 783
 1.39784700000000E+0006 796
 1.39862400000000E+0006 777
 1.39937000000000E+0006 746
 1.40011200000000E+0006 742
 1.40085000000000E+0006 738
 1.40159200000000E+0006 742
 1.40233600000000E+0006 744
 1.40308800000000E+0006 752
 1.40384000000000E+0006 752
 1.40456800000000E+0006 728
 1.40529200000000E+0006 724
 1.40600800000000E+0006 716
 1.40673800000000E+0006 730
 1.40745800000000E+0006 720
 1.40817400000000E+0006 716
 1.40890600000000E+0006 732
 1.40963400000000E+0006 728
 1.41035600000000E+0006 722
 1.41107400000000E+0006 718
 1.41180000000000E+0006 726
 1.41250900000000E+0006 709
 1.41321000000000E+0006 701
 1.41390100000000E+0006 691
 1.41460400000000E+0006 703
 1.41529700000000E+0006 693
 1.41599200000000E+0006 695
 1.41668300000000E+0006 691
 1.41741300000000E+0006 730
 1.41814100000000E+0006 728
 1.41886700000000E+0006 726
 1.41959900000000E+0006 732
 1.42035400000000E+0006 755
 1.42109200000000E+0006 738
 1.42181600000000E+0006 724
 1.42254800000000E+0006 732
 1.42327000000000E+0006 722
 1.42399200000000E+0006 722
 1.42469700000000E+0006 705
 1.42541700000000E+0006 720
 1.42613300000000E+0006 716
 1.42684300000000E+0006 710
 1.42755200000000E+0006 709
 1.42827200000000E+0006 720
 1.42900200000000E+0006 730
 1.42971600000000E+0006 714
 1.43044200000000E+0006 726
 1.43115800000000E+0006 716
 1.43186800000000E+0006 710
 1.43257100000000E+0006 703
 1.43329100000000E+0006 720
 1.43401300000000E+0006 722
 1.43472900000000E+0006 716
 1.43544700000000E+0006 718
 1.43617100000000E+0006 724
 1.43689100000000E+0006 720
 1.43759400000000E+0006 703
 1.43831400000000E+0006 720
 1.43903200000000E+0006 718
 1.43974800000000E+0006 716
 1.44046200000000E+0006 714
 1.44119600000000E+0006 734
 1.44191800000000E+0006 722
 1.44264800000000E+0006 730
 1.44336800000000E+0006 720
 1.44408200000000E+0006 714
 1.44480800000000E+0006 726
 1.44551800000000E+0006 710
 1.44624000000000E+0006 722
 1.44694500000000E+0006 705
 1.44765500000000E+0006 710
 1.44835800000000E+0006 703
 1.44907000000000E+0006 712
 1.44978200000000E+0006 712
 1.45049800000000E+0006 716
 1.45122000000000E+0006 722
 1.45193800000000E+0006 718
 1.45266600000000E+0006 728
 1.45338400000000E+0006 718
 1.45409400000000E+0006 710
 1.45480400000000E+0006 710
 1.45551800000000E+0006 714
 1.45622700000000E+0006 709
 1.45694100000000E+0006 714
 1.45765500000000E+0006 714
 1.45836200000000E+0006 707
 1.45905900000000E+0006 697
 1.45976200000000E+0006 703
 1.46045700000000E+0006 695
 1.46114600000000E+0006 689
 1.46183300000000E+0006 687
 1.46253400000000E+0006 701
 1.46324400000000E+0006 710
 1.46396200000000E+0006 718
 1.46468600000000E+0006 724
 1.46540000000000E+0006 714
 1.46612600000000E+0006 726
 1.46685800000000E+0006 732
 1.46758600000000E+0006 728
 1.46830000000000E+0006 714
 1.46901200000000E+0006 712
 1.46971900000000E+0006 707
 1.47042900000000E+0006 710
 1.47112800000000E+0006 699
 1.47183300000000E+0006 705
 1.47253200000000E+0006 699
 1.47322900000000E+0006 697
 1.47393000000000E+0006 701
 1.47464200000000E+0006 712
 1.47534900000000E+0006 707
 1.47609900000000E+0006 750
 1.47685800000000E+0006 759
 1.47763900000000E+0006 781
 1.47844100000000E+0006 802
 1.47923500000000E+0006 794
 1.48001600000000E+0006 781
 1.48082400000000E+0006 808
 1.48161800000000E+0006 794
 1.48237000000000E+0006 752
 1.48311600000000E+0006 746
 1.48384800000000E+0006 732
 1.48456600000000E+0006 718
 1.48530000000000E+0006 734
 1.48601600000000E+0006 716
 1.48672100000000E+0006 705
 1.48743000000000E+0006 709
 1.48815200000000E+0006 722
 1.48886100000000E+0006 709
 1.48959100000000E+0006 730
 1.49031300000000E+0006 722
 1.49103700000000E+0006 724
 1.49176700000000E+0006 730
 1.49253400000000E+0006 767
 1.49326200000000E+0006 728
 1.49399800000000E+0006 736
 1.49473000000000E+0006 732
 1.49545600000000E+0006 726
 1.49619000000000E+0006 734
 1.49692400000000E+0006 734
 1.49767600000000E+0006 752
 1.49840000000000E+0006 724
 1.49912800000000E+0006 728
 1.49983500000000E+0006 707
 1.50054900000000E+0006 714
 1.50124800000000E+0006 699
 1.50193900000000E+0006 691
 1.50263800000000E+0006 699
 1.50335000000000E+0006 712
 1.50407400000000E+0006 724
 1.50478600000000E+0006 712
 1.50552000000000E+0006 734
 1.50625000000000E+0006 730
 1.50698000000000E+0006 730
 1.50770800000000E+0006 728
 1.50845000000000E+0006 742
 1.50918800000000E+0006 738
 1.50992000000000E+0006 732
 1.51064400000000E+0006 724
 1.51137000000000E+0006 726
 1.51208400000000E+0006 714
 1.51280400000000E+0006 720
 1.51354000000000E+0006 736
 1.51425200000000E+0006 712
 1.51496600000000E+0006 714
 1.51567100000000E+0006 705
 1.51638700000000E+0006 716
 1.51709900000000E+0006 712
 1.51780000000000E+0006 701
 1.51848700000000E+0006 687
 1.51920700000000E+0006 720
 1.51990200000000E+0006 695
 1.52059100000000E+0006 689
 1.52128800000000E+0006 697
 1.52201800000000E+0006 730
 1.52272800000000E+0006 710
 1.52343800000000E+0006 710
 1.52414500000000E+0006 707
 1.52487300000000E+0006 728
 1.52558500000000E+0006 712
 1.52628600000000E+0006 701
 1.52699500000000E+0006 709
 1.52772100000000E+0006 726
 1.52844100000000E+0006 720
 1.52914400000000E+0006 703
 1.52985600000000E+0006 712
 1.53056800000000E+0006 712
 1.53126900000000E+0006 701
 1.53195600000000E+0006 687
 1.53266100000000E+0006 705
 1.53338100000000E+0006 720
 1.53410700000000E+0006 726
 1.53482900000000E+0006 722
 1.53558400000000E+0006 755
 1.53633600000000E+0006 752
 1.53708600000000E+0006 750
 1.53784100000000E+0006 755
 1.53860000000000E+0006 759
 1.53932600000000E+0006 726
 1.54003100000000E+0006 705
 1.54071600000000E+0006 685
 1.54141100000000E+0006 695
 1.54211200000000E+0006 701
 1.54280700000000E+0006 695
 1.54353300000000E+0006 726
 1.54427700000000E+0006 744
 1.54501900000000E+0006 742
 1.54576300000000E+0006 744
 1.54650700000000E+0006 744
 1.54724700000000E+0006 740
 1.54797500000000E+0006 728
 1.54871300000000E+0006 738
 1.54945500000000E+0006 742
 1.55018900000000E+0006 734
 1.55093100000000E+0006 742
 1.55170600000000E+0006 775
 1.55246700000000E+0006 761
 1.55322600000000E+0006 759
 1.55399900000000E+0006 773
 1.55474500000000E+0006 746
 1.55547100000000E+0006 726
 1.55618300000000E+0006 712
 1.55690100000000E+0006 718
 1.55762500000000E+0006 724
 1.55834300000000E+0006 718
 1.55905000000000E+0006 707
 1.55977800000000E+0006 728
 1.56049800000000E+0006 720
 1.56120700000000E+0006 709
 1.56191400000000E+0006 707
 1.56262400000000E+0006 710
 1.56333400000000E+0006 710
 1.56402900000000E+0006 695
 1.56473600000000E+0006 707
 1.56543900000000E+0006 703
 1.56614200000000E+0006 703
 1.56685600000000E+0006 714
 1.56758800000000E+0006 732
 1.56832200000000E+0006 734
 1.56906400000000E+0006 742
 1.56978800000000E+0006 724
 1.57052400000000E+0006 736
 1.57124600000000E+0006 722
 1.57196400000000E+0006 718
 1.57267400000000E+0006 710
 1.57339200000000E+0006 718
 1.57411000000000E+0006 718
 1.57481500000000E+0006 705
 1.57552000000000E+0006 705
 1.57622100000000E+0006 701
 1.57691600000000E+0006 695
 1.57759100000000E+0006 675
 1.57827600000000E+0006 685
 1.57896900000000E+0006 693
 1.57965200000000E+0006 683
 1.58034700000000E+0006 695
 1.58104600000000E+0006 699
 1.58174300000000E+0006 697
 1.58246500000000E+0006 722
 1.58318900000000E+0006 724
 1.58392500000000E+0006 736
 1.58465700000000E+0006 732
 1.58540100000000E+0006 744
 1.58612100000000E+0006 720
 1.58684500000000E+0006 724
 1.58755400000000E+0006 709
 1.58826600000000E+0006 712
 1.58897100000000E+0006 705
 1.58966800000000E+0006 697
 1.59038000000000E+0006 712
 1.59110600000000E+0006 726
 1.59183200000000E+0006 726
 1.59255400000000E+0006 722
 1.59329800000000E+0006 744
 1.59402600000000E+0006 728
 1.59475800000000E+0006 732
 1.59548400000000E+0006 726
 1.59621800000000E+0006 734
 1.59695000000000E+0006 732
 1.59769000000000E+0006 740
 1.59842400000000E+0006 734
 1.59914400000000E+0006 720
 1.59987400000000E+0006 730
 1.60058600000000E+0006 712
 1.60132800000000E+0006 742
 1.60206800000000E+0006 740
 1.60280000000000E+0006 732
 1.60353000000000E+0006 730
 1.60428000000000E+0006 750
 1.60501400000000E+0006 734
 1.60574000000000E+0006 726
 1.60649500000000E+0006 755
 1.60726400000000E+0006 769
 1.60800800000000E+0006 744
 1.60874200000000E+0006 734
 1.60948000000000E+0006 738
 1.61021200000000E+0006 732
 1.61094600000000E+0006 734
 1.61165800000000E+0006 712
 1.61236300000000E+0006 705
 1.61307500000000E+0006 712
 1.61379500000000E+0006 720
 1.61451100000000E+0006 716
 1.61525700000000E+0006 746
 1.61600300000000E+0006 746
 1.61674900000000E+0006 746
 1.61750400000000E+0006 755
 1.61825700000000E+0006 753
 1.61901200000000E+0006 755
 1.61976200000000E+0006 750
 1.62053100000000E+0006 769
 1.62128800000000E+0006 757
 1.62203200000000E+0006 744
 1.62276400000000E+0006 732
 1.62350400000000E+0006 740
 1.62425400000000E+0006 750
 1.62498600000000E+0006 732
 1.62573400000000E+0006 748
 1.62649700000000E+0006 763
 1.62725600000000E+0006 759
 1.62801500000000E+0006 759
 1.62878600000000E+0006 771
 1.62954300000000E+0006 757
 1.63030400000000E+0006 761
 1.63107500000000E+0006 771
 1.63183800000000E+0006 763
 1.63259000000000E+0006 752
 1.63335500000000E+0006 765
 1.63411000000000E+0006 755
 1.63484600000000E+0006 736
 1.63558000000000E+0006 734
 1.63631200000000E+0006 732
 1.63703800000000E+0006 726
 1.63776600000000E+0006 728
 1.63849200000000E+0006 726
 1.63923000000000E+0006 738
 1.63997800000000E+0006 748
 1.64071800000000E+0006 740
 1.64145800000000E+0006 740
 1.64219800000000E+0006 740
 1.64292800000000E+0006 730
 1.64363100000000E+0006 703
 1.64434700000000E+0006 716
 1.64505600000000E+0006 709
 1.64575500000000E+0006 699
 1.64645600000000E+0006 701
 1.64720000000000E+0006 744
 1.64793000000000E+0006 730
 1.64865000000000E+0006 720
 1.64937000000000E+0006 720
 1.65011600000000E+0006 746
 1.65085200000000E+0006 736
 1.65157200000000E+0006 720
 1.65229600000000E+0006 724
 1.65303200000000E+0006 736
 1.65376200000000E+0006 730
 1.65449000000000E+0006 728
 1.65522400000000E+0006 734
 1.65595800000000E+0006 734
 1.65668600000000E+0006 728
 1.65741200000000E+0006 726
 1.65818900000000E+0006 777
 1.65901100000000E+0006 822
 1.65977400000000E+0006 763
 1.66054500000000E+0006 771
 1.66128300000000E+0006 738
 1.66200300000000E+0006 720
 1.66272700000000E+0006 724
 1.66343900000000E+0006 712
 1.66414400000000E+0006 705
 1.66485100000000E+0006 707
 1.66554400000000E+0006 693
 1.66622300000000E+0006 679
 1.66689600000000E+0006 673
 1.66755200000000E+0006 656
 1.66819000000000E+0006 638
 1.66881800000000E+0006 628
 1.66946400000000E+0006 646
 1.67014300000000E+0006 679
 1.67084600000000E+0006 703
 1.67155100000000E+0006 705
 1.67229100000000E+0006 740
 1.67306800000000E+0006 777
 1.67382900000000E+0006 761
 1.67462500000000E+0006 796
 1.67544300000000E+0006 818
 1.67623200000000E+0006 789
 1.67698200000000E+0006 750
 1.67771800000000E+0006 736
 1.67843600000000E+0006 718
 1.67914100000000E+0006 705
 1.67984800000000E+0006 707
 1.68054100000000E+0006 693
 1.68124000000000E+0006 699
 1.68195000000000E+0006 710
 1.68266400000000E+0006 714
 1.68337400000000E+0006 710
 1.68412200000000E+0006 748
 1.68486800000000E+0006 746
 1.68560600000000E+0006 738
 1.68633800000000E+0006 732
 1.68709000000000E+0006 752
 1.68784200000000E+0006 752
 1.68857400000000E+0006 732
 1.68929600000000E+0006 722
 1.69002600000000E+0006 730
 1.69076400000000E+0006 738
 1.69149200000000E+0006 728
 1.69222200000000E+0006 730
 1.69298500000000E+0006 763
 1.69374800000000E+0006 763
 1.69450500000000E+0006 757
 1.69524700000000E+0006 742
 1.69599300000000E+0006 746
 1.69673100000000E+0006 738
 1.69746300000000E+0006 732
 1.69818300000000E+0006 720
 1.69892300000000E+0006 740
 1.69965700000000E+0006 734
 1.70039100000000E+0006 734
 1.70112100000000E+0006 730
 1.70186900000000E+0006 748
 1.70260500000000E+0006 736
 1.70333100000000E+0006 726
 1.70404700000000E+0006 716
 1.70476300000000E+0006 716
 1.70547000000000E+0006 707
 1.70615700000000E+0006 687
 1.70687300000000E+0006 716
 1.70762800000000E+0006 755
 1.70837200000000E+0006 744
 1.70914100000000E+0006 769
 1.70993500000000E+0006 794
 1.71074500000000E+0006 810
 1.71152000000000E+0006 775
 1.71230700000000E+0006 787
 1.71306400000000E+0006 757
 1.71379800000000E+0006 734
 1.71451800000000E+0006 720
 1.71523200000000E+0006 714
 1.71595400000000E+0006 722
 1.71667800000000E+0006 724
 1.71739800000000E+0006 720
 1.71810800000000E+0006 710
 1.71885200000000E+0006 744
 1.71960200000000E+0006 750
 1.72035200000000E+0006 750
 1.72110400000000E+0006 752
 1.72187900000000E+0006 775
 1.72263600000000E+0006 757
 1.72338800000000E+0006 752
 1.72412200000000E+0006 734
 1.72488100000000E+0006 759
 1.72562700000000E+0006 746
 1.72636100000000E+0006 734
 1.72708100000000E+0006 720
 1.72781900000000E+0006 738
 1.72856100000000E+0006 742
 1.72929500000000E+0006 734
 1.73001500000000E+0006 720
 1.73075900000000E+0006 744
 1.73149500000000E+0006 736
 1.73221900000000E+0006 724
 1.73292900000000E+0006 710
 1.73365100000000E+0006 722
 1.73435200000000E+0006 701
 1.73503300000000E+0006 681
 1.73567900000000E+0006 646
 1.73632100000000E+0006 642
 1.73697300000000E+0006 652
 1.73766600000000E+0006 693
 1.73836100000000E+0006 695
 1.73905200000000E+0006 691
 1.73974900000000E+0006 697
 1.74047500000000E+0006 726
 1.74118500000000E+0006 710
 1.74189000000000E+0006 705
 1.74258700000000E+0006 697
 1.74329200000000E+0006 705
 1.74399300000000E+0006 701
 1.74468000000000E+0006 687
 1.74535500000000E+0006 675
 1.74603600000000E+0006 681
 1.74673500000000E+0006 699
 1.74743400000000E+0006 699
 1.74812100000000E+0006 687
 1.74882400000000E+0006 703
 1.74955000000000E+0006 726
 1.75027000000000E+0006 720
 1.75098000000000E+0006 710
 1.75169000000000E+0006 710
 1.75241600000000E+0006 726
 1.75317500000000E+0006 759
 1.75391300000000E+0006 738
 1.75463500000000E+0006 722
 1.75535900000000E+0006 724
 1.75610700000000E+0006 748
 1.75685500000000E+0006 748
 1.75759700000000E+0006 742
 1.75833500000000E+0006 738
 1.75908700000000E+0006 752
 1.75983700000000E+0006 750
 1.76056900000000E+0006 732
 1.76129300000000E+0006 724
 1.76200900000000E+0006 716
 1.76272900000000E+0006 720
 1.76343200000000E+0006 703
 1.76412100000000E+0006 689
 1.76481600000000E+0006 695
 1.76552300000000E+0006 707
 1.76623000000000E+0006 707
 1.76692300000000E+0006 693
 1.76761400000000E+0006 691
 1.76833400000000E+0006 720
 1.76905400000000E+0006 720
 1.76976600000000E+0006 712
 1.77046900000000E+0006 703
 1.77118500000000E+0006 716
 1.77189000000000E+0006 705
 1.77258300000000E+0006 693
 1.77327200000000E+0006 689
 1.77398800000000E+0006 716
 1.77470000000000E+0006 712
 1.77539700000000E+0006 697
 1.77609000000000E+0006 693
 1.77680800000000E+0006 718
 1.77751800000000E+0006 710
 1.77822100000000E+0006 703
 1.77891600000000E+0006 695
 1.77963200000000E+0006 716
 1.78033700000000E+0006 705
 1.78103200000000E+0006 695
 1.78172700000000E+0006 695
 1.78243700000000E+0006 710
 1.78313400000000E+0006 697
 1.78381100000000E+0006 677
 1.78448600000000E+0006 675
 1.78518100000000E+0006 695
 1.78586200000000E+0006 681
 1.78652800000000E+0006 666
 1.78718400000000E+0006 656
 1.78786900000000E+0006 685
 1.78855200000000E+0006 683
 1.78924500000000E+0006 693
 1.78994200000000E+0006 697
 1.79067400000000E+0006 732
 1.79139000000000E+0006 716
 1.79210200000000E+0006 712
 1.79282000000000E+0006 718
 1.79355800000000E+0006 738
 1.79427800000000E+0006 720
 1.79500000000000E+0006 722
 1.79571800000000E+0006 718
 1.79644200000000E+0006 724
 1.79715600000000E+0006 714
 1.79785700000000E+0006 701
 1.79856400000000E+0006 707
 1.79928400000000E+0006 720
 1.80000400000000E+0006 720
 1.80071300000000E+0006 709
 1.80143500000000E+0006 722
 1.80216100000000E+0006 726
 1.80287500000000E+0006 714
 1.80357400000000E+0006 699
 1.80428100000000E+0006 707
 1.80498800000000E+0006 707
 1.80567900000000E+0006 691
 1.80637200000000E+0006 693
 1.80707700000000E+0006 705
 1.80777800000000E+0006 701
 1.80846100000000E+0006 683
 1.80915400000000E+0006 693
 1.80985900000000E+0006 705
 1.81056800000000E+0006 709
 1.81126300000000E+0006 695
 1.81197500000000E+0006 712
 1.81268900000000E+0006 714
 1.81340300000000E+0006 714
 1.81410400000000E+0006 701
 1.81482800000000E+0006 724
 1.81557000000000E+0006 742
 1.81629800000000E+0006 728
 1.81701600000000E+0006 718
 1.81773000000000E+0006 714
 1.81843500000000E+0006 705
 1.81914500000000E+0006 710
 1.81984200000000E+0006 697
 1.82055800000000E+0006 716
 1.82127600000000E+0006 718
 1.82199200000000E+0006 716
 1.82270400000000E+0006 712
 1.82344800000000E+0006 744
 1.82420500000000E+0006 757
 1.82494100000000E+0006 736
 1.82566300000000E+0006 722
 1.82638300000000E+0006 720
 1.82709200000000E+0006 709
 1.82779100000000E+0006 699
 1.82847200000000E+0006 681
 1.82916900000000E+0006 697
 1.82987000000000E+0006 701
 1.83056900000000E+0006 699
 1.83125400000000E+0006 685
 1.83196600000000E+0006 712
 1.83268000000000E+0006 714
 1.83338300000000E+0006 703
 1.83408200000000E+0006 699
 1.83480600000000E+0006 724
 1.83552000000000E+0006 714
 1.83621900000000E+0006 699
 1.83691800000000E+0006 699
 1.83763400000000E+0006 716
 1.83833900000000E+0006 705
 1.83904000000000E+0006 701
 1.83973100000000E+0006 691
 1.84044500000000E+0006 714
 1.84115400000000E+0006 709
 1.84185100000000E+0006 697
 1.84255400000000E+0006 703
 1.84329200000000E+0006 738
 1.84401400000000E+0006 722
 1.84473200000000E+0006 718
 1.84544600000000E+0006 714
 1.84618000000000E+0006 734
 1.84689200000000E+0006 712
 1.84759500000000E+0006 703
 1.84828600000000E+0006 691
 1.84900400000000E+0006 718
 1.84971300000000E+0006 709
 1.85041000000000E+0006 697
 1.85110900000000E+0006 699
 1.85181800000000E+0006 709
 1.85253200000000E+0006 714
 1.85322900000000E+0006 697
 1.85393000000000E+0006 701
 1.85462500000000E+0006 695
 1.85531800000000E+0006 693
 1.85600100000000E+0006 683
 1.85672300000000E+0006 722
 1.85743900000000E+0006 716
 1.85815100000000E+0006 712
 1.85886100000000E+0006 710
 1.85958700000000E+0006 726
 1.86030700000000E+0006 720
 1.86100800000000E+0006 701
 1.86170300000000E+0006 695
 1.86241200000000E+0006 709
 1.86311900000000E+0006 707
 1.86381000000000E+0006 691
 1.86449900000000E+0006 689
 1.86519600000000E+0006 697
 1.86589700000000E+0006 701
 1.86659400000000E+0006 697
 1.86731400000000E+0006 720
 1.86804000000000E+0006 726
 1.86875600000000E+0006 716
 1.86947600000000E+0006 720
 1.87021600000000E+0006 740
 1.87095400000000E+0006 738
 1.87166600000000E+0006 712
 1.87236700000000E+0006 701
 1.87307700000000E+0006 710
 1.87377600000000E+0006 699
 1.87446300000000E+0006 687
 1.87514800000000E+0006 685
 1.87586000000000E+0006 712
 1.87656900000000E+0006 709
 1.87727200000000E+0006 703
 1.87796700000000E+0006 695
 1.87868700000000E+0006 720
 1.87940900000000E+0006 722
 1.88011600000000E+0006 707
 1.88081700000000E+0006 701
 1.88152000000000E+0006 703
 1.88222300000000E+0006 703
 1.88290400000000E+0006 681
 1.88357500000000E+0006 671
 1.88423900000000E+0006 664
 1.88488500000000E+0006 646
 1.88551200000000E+0006 627
 1.88615000000000E+0006 638
 1.88680800000000E+0006 658
 1.88748700000000E+0006 679
 1.88817000000000E+0006 683
 1.88887100000000E+0006 701
 1.88957800000000E+0006 707
 1.89027500000000E+0006 697
 1.89098200000000E+0006 707
 1.89168900000000E+0006 707
 1.89240300000000E+0006 714
 1.89310600000000E+0006 703
 1.89379100000000E+0006 685
 1.89446000000000E+0006 669
 1.89512400000000E+0006 664
 1.89579500000000E+0006 671
 1.89647200000000E+0006 677
 1.89714000000000E+0006 668
 1.89782500000000E+0006 685
 1.89853500000000E+0006 710
 1.89924500000000E+0006 710
 1.89996100000000E+0006 716
 1.90067300000000E+0006 712
 1.90139100000000E+0006 718
 1.90209200000000E+0006 701
 1.90279100000000E+0006 699
 1.90348600000000E+0006 695
 1.90418700000000E+0006 701
 1.90487200000000E+0006 685
 1.90555300000000E+0006 681
 1.90623000000000E+0006 677
 1.90691700000000E+0006 687
 1.90759400000000E+0006 677
 1.90826500000000E+0006 671
 1.90891500000000E+0006 650
 1.90956100000000E+0006 646
 1.91019700000000E+0006 636
 1.91082200000000E+0006 625
 1.91144900000000E+0006 627
 1.91208100000000E+0006 632
 1.91271500000000E+0006 634
 1.91336500000000E+0006 650
 1.91404000000000E+0006 675
 1.91470900000000E+0006 669
 1.91538800000000E+0006 679
 1.91605900000000E+0006 671
 1.91674800000000E+0006 689
 1.91744700000000E+0006 699
 1.91813200000000E+0006 685
 1.91880700000000E+0006 675
 1.91947500000000E+0006 668
 1.92015400000000E+0006 679
 1.92085900000000E+0006 705
 1.92155400000000E+0006 695
 1.92223700000000E+0006 683
 1.92291400000000E+0006 677
 1.92360100000000E+0006 687
 1.92428600000000E+0006 685
 1.92494800000000E+0006 662
 1.92562100000000E+0006 673
 1.92631600000000E+0006 695
 1.92701300000000E+0006 697
 1.92770000000000E+0006 687
 1.92837700000000E+0006 677
 1.92906400000000E+0006 687
 1.92976100000000E+0006 697
 1.93045000000000E+0006 689
 1.93115100000000E+0006 701
 1.93184600000000E+0006 695
 1.93255500000000E+0006 709
 1.93326200000000E+0006 707
 1.93396300000000E+0006 701
 1.93466800000000E+0006 705
 1.93537500000000E+0006 707
 1.93608500000000E+0006 710
 1.93678200000000E+0006 697
 1.93747700000000E+0006 695
 1.93816200000000E+0006 685
 1.93884900000000E+0006 687
 1.93953600000000E+0006 687
 1.94020500000000E+0006 669
 1.94087400000000E+0006 669
 1.94155300000000E+0006 679
 1.94223000000000E+0006 677
 1.94290900000000E+0006 679
 1.94357500000000E+0006 666
 1.94425200000000E+0006 677
 1.94494500000000E+0006 693
 1.94562400000000E+0006 679
 1.94628600000000E+0006 662
 1.94694400000000E+0006 658
 1.94760200000000E+0006 658
 1.94828500000000E+0006 683
 1.94896200000000E+0006 677
 1.94963100000000E+0006 669
 1.95026900000000E+0006 638
 1.95091700000000E+0006 648
 1.95154000000000E+0006 623
 1.95214500000000E+0006 605
 1.95274400000000E+0006 599
 1.95333100000000E+0006 587
 1.95392000000000E+0006 589
 1.95450700000000E+0006 587
 1.95511400000000E+0006 607
 1.95577800000000E+0006 664
 1.95646500000000E+0006 687
 1.95714600000000E+0006 681
 1.95785600000000E+0006 710
 1.95861100000000E+0006 755
 1.95942100000000E+0006 810
 1.96024700000000E+0006 826
 1.96099100000000E+0006 744
 1.96177800000000E+0006 787
 1.96257400000000E+0006 796
 1.96336300000000E+0006 789
 1.96414200000000E+0006 779
 1.96488400000000E+0006 742
 1.96563400000000E+0006 750
 1.96637600000000E+0006 742
 1.96714100000000E+0006 765
 1.96787300000000E+0006 732
 1.96861100000000E+0006 738
 1.96935100000000E+0006 740
 1.97010800000000E+0006 757
 1.97084200000000E+0006 734
 1.97158400000000E+0006 742
 1.97235100000000E+0006 767
 1.97310800000000E+0006 757
 1.97384800000000E+0006 740
 1.97458400000000E+0006 736
 1.97531000000000E+0006 726
 1.97604800000000E+0006 738
 1.97676800000000E+0006 720
 1.97748600000000E+0006 718
 1.97819600000000E+0006 710
 1.97891600000000E+0006 720
 1.97961700000000E+0006 701
 1.98032700000000E+0006 710
 1.98103000000000E+0006 703
 1.98175000000000E+0006 720
 1.98246400000000E+0006 714
 1.98318400000000E+0006 720
 1.98390200000000E+0006 718
 1.98463600000000E+0006 734
 1.98535200000000E+0006 716
 1.98607400000000E+0006 722
 1.98679800000000E+0006 724
 1.98752200000000E+0006 724
 1.98824200000000E+0006 720
 1.98897000000000E+0006 728
 1.98968800000000E+0006 718
 1.99039700000000E+0006 709
 1.99112100000000E+0006 724
 1.99184500000000E+0006 724
 1.99258300000000E+0006 738
 1.99329700000000E+0006 714
 1.99401700000000E+0006 720
 1.99472900000000E+0006 712
 1.99544300000000E+0006 714
 1.99615200000000E+0006 709
 1.99685900000000E+0006 707
 1.99757100000000E+0006 712
 1.99827800000000E+0006 707
 1.99899600000000E+0006 718
 1.99970800000000E+0006 712
 2.00043200000000E+0006 724
 2.00114600000000E+0006 714
 2.00185800000000E+0006 712
 2.00256700000000E+0006 709
 2.00328700000000E+0006 720
 2.00399700000000E+0006 710
 2.00470200000000E+0006 705
 2.00540300000000E+0006 701
 2.00611900000000E+0006 716
 2.00682600000000E+0006 707
 2.00753600000000E+0006 710
 2.00824500000000E+0006 709
 2.00897100000000E+0006 726
 2.00969700000000E+0006 726
 2.01043100000000E+0006 734
 2.01118100000000E+0006 750
 2.01193100000000E+0006 750
 2.01269600000000E+0006 765
 2.01347100000000E+0006 775
 2.01424400000000E+0006 773
 2.01498400000000E+0006 740
 2.01572600000000E+0006 742
 2.01645400000000E+0006 728
 2.01718600000000E+0006 732
 2.01790400000000E+0006 718
 2.01863800000000E+0006 734
 2.01937000000000E+0006 732
 2.02009600000000E+0006 726
 2.02083000000000E+0006 734
 2.02155400000000E+0006 724
 2.02228400000000E+0006 730
 2.02300000000000E+0006 716
 2.02371200000000E+0006 712
 2.02442100000000E+0006 709
 2.02512800000000E+0006 707
 2.02583500000000E+0006 707
 2.02654200000000E+0006 707
 2.02724300000000E+0006 701
 2.02795900000000E+0006 716
 2.02868300000000E+0006 724
 2.02939700000000E+0006 714
 2.03011300000000E+0006 716
 2.03083100000000E+0006 718
 2.03155300000000E+0006 722
 2.03226900000000E+0006 716
 2.03298700000000E+0006 718
 2.03371300000000E+0006 726
 2.03443700000000E+0006 724
 2.03516300000000E+0006 726
 2.03586800000000E+0006 705
 2.03659400000000E+0006 726
 2.03733400000000E+0006 740
 2.03807000000000E+0006 736
 2.03881200000000E+0006 742
 2.03957100000000E+0006 759
 2.04032100000000E+0006 750
 2.04105500000000E+0006 734
 2.04177700000000E+0006 722
 2.04251900000000E+0006 742
 2.04325700000000E+0006 738
 2.04398100000000E+0006 724
 2.04470500000000E+0006 724
 2.04545500000000E+0006 750
 2.04618100000000E+0006 726
 2.04689900000000E+0006 718
 2.04761700000000E+0006 718
 2.04834300000000E+0006 726
 2.04905900000000E+0006 716
 2.04976600000000E+0006 707
 2.05046700000000E+0006 701
 2.05119300000000E+0006 726
 2.05191100000000E+0006 718
 2.05262100000000E+0006 710
 2.05333700000000E+0006 716
 2.05405100000000E+0006 714
 2.05476100000000E+0006 710
 2.05546400000000E+0006 703
 2.05617300000000E+0006 709
 2.05688200000000E+0006 709
 2.05759400000000E+0006 712
 2.05829700000000E+0006 703
 2.05902300000000E+0006 726
 2.05974900000000E+0006 726
 2.06046900000000E+0006 720
 2.06117600000000E+0006 707
 2.06191000000000E+0006 734
 2.06264000000000E+0006 730
 2.06335600000000E+0006 716
 2.06407200000000E+0006 716
 2.06480000000000E+0006 728
 2.06551800000000E+0006 718
 2.06622800000000E+0006 710
 2.06694400000000E+0006 716
 2.06765600000000E+0006 712
 2.06837600000000E+0006 720
 2.06910000000000E+0006 724
 2.06984600000000E+0006 746
 2.07057600000000E+0006 730
 2.07128800000000E+0006 712
 2.07199800000000E+0006 710
 2.07270700000000E+0006 709
 2.07341200000000E+0006 705
 2.07409900000000E+0006 687
 2.07480200000000E+0006 703
 2.07549300000000E+0006 691
 2.07619000000000E+0006 697
 2.07687700000000E+0006 687
 2.07758700000000E+0006 710
 2.07829700000000E+0006 710
 2.07900200000000E+0006 705
 2.07970500000000E+0006 703
 2.08042500000000E+0006 720
 2.08113900000000E+0006 714
 2.08184200000000E+0006 703
 2.08253900000000E+0006 697
 2.08324400000000E+0006 705
 2.08394500000000E+0006 701
 2.08463400000000E+0006 689
 2.08531700000000E+0006 683
 2.08601000000000E+0006 693
 2.08670100000000E+0006 691
 2.08737400000000E+0006 673
 2.08805100000000E+0006 677
 2.08873000000000E+0006 679
 2.08942700000000E+0006 697
 2.09011400000000E+0006 687
 2.09079500000000E+0006 681
 2.09146800000000E+0006 673
 2.09213700000000E+0006 669
 2.09278700000000E+0006 650
 2.09343500000000E+0006 648
 2.09406900000000E+0006 634
 2.09469900000000E+0006 630
 2.09534900000000E+0006 650
 2.09599500000000E+0006 646
 2.09665500000000E+0006 660
 2.09736500000000E+0006 710
 2.09812000000000E+0006 755
 2.09884400000000E+0006 724
 2.09958600000000E+0006 742
 2.10032600000000E+0006 740
 2.10105600000000E+0006 730
 2.10176600000000E+0006 710
 2.10246900000000E+0006 703
 2.10315800000000E+0006 689
 2.10382700000000E+0006 669
 2.10451200000000E+0006 685
 2.10523000000000E+0006 718
 2.10595600000000E+0006 726
 2.10669800000000E+0006 742
 2.10741000000000E+0006 712
 2.10814200000000E+0006 732
 2.10889000000000E+0006 748
 2.10968800000000E+0006 798
 2.11044900000000E+0006 761
 2.11124200000000E+0006 793
 2.11202300000000E+0006 781
 2.11276100000000E+0006 738
 2.11350500000000E+0006 744
 2.11421700000000E+0006 712
 2.11491200000000E+0006 695
 2.11560700000000E+0006 695
 2.11628800000000E+0006 681
 2.11696100000000E+0006 673
 2.11766000000000E+0006 699
 2.11836700000000E+0006 707
 2.11907200000000E+0006 705
 2.11976700000000E+0006 695
 2.12049300000000E+0006 726
 2.12124500000000E+0006 752
 2.12197500000000E+0006 730
 2.12269700000000E+0006 722
 2.12340200000000E+0006 705
 2.12413400000000E+0006 732
 2.12485200000000E+0006 718
 2.12554900000000E+0006 697
 2.12622800000000E+0006 679
 2.12692300000000E+0006 695
 2.12764100000000E+0006 718
 2.12836500000000E+0006 724
 2.12906800000000E+0006 703
 2.12976500000000E+0006 697
 2.13043600000000E+0006 671
 2.13108400000000E+0006 648
 2.13176900000000E+0006 685
 2.13247200000000E+0006 703
 2.13316900000000E+0006 697
 2.13384600000000E+0006 677
 2.13450200000000E+0006 656
 2.13516800000000E+0006 666
 2.13584100000000E+0006 673
 2.13652400000000E+0006 683
 2.13722100000000E+0006 697
 2.13796100000000E+0006 740
 2.13874000000000E+0006 779
 2.13948600000000E+0006 746
 2.14025900000000E+0006 773
 2.14103200000000E+0006 773
 2.14181100000000E+0006 779
 2.14254900000000E+0006 738
 2.14328700000000E+0006 738
 2.14402300000000E+0006 736
 2.14477800000000E+0006 755
 2.14551200000000E+0006 734
 2.14625600000000E+0006 744
 2.14698800000000E+0006 732
 2.14774000000000E+0006 752
 2.14847200000000E+0006 732
 2.14921600000000E+0006 744
 2.14994200000000E+0006 726
 2.15069000000000E+0006 748
 2.15141800000000E+0006 728
 2.15214800000000E+0006 730
 2.15288200000000E+0006 734
 2.15364700000000E+0006 765
 2.15439100000000E+0006 744
 2.15513900000000E+0006 748
 2.15589800000000E+0006 759
 2.15668900000000E+0006 791
 2.15744600000000E+0006 757
 2.15820100000000E+0006 755
 2.15895800000000E+0006 757
 2.15971700000000E+0006 759
 2.16044100000000E+0006 724
 2.16117300000000E+0006 732
 2.16191700000000E+0006 744
 2.16268200000000E+0006 765
 2.16342800000000E+0006 746
 2.16416000000000E+0006 732
 2.16489200000000E+0006 732
 2.16562200000000E+0006 730
 2.16634000000000E+0006 718
 2.16703700000000E+0006 697
 2.16774900000000E+0006 712
 2.16847300000000E+0006 724
 2.16919100000000E+0006 718
 2.16989800000000E+0006 707
 2.17063000000000E+0006 732
 2.17136600000000E+0006 736
 2.17210400000000E+0006 738
 2.17284200000000E+0006 738
 2.17359900000000E+0006 757
 2.17434700000000E+0006 748
 2.17508500000000E+0006 738
 2.17582900000000E+0006 744
 2.17656900000000E+0006 740
 2.17731500000000E+0006 746
 2.17805100000000E+0006 736
 2.17878700000000E+0006 736
 2.17950900000000E+0006 722
 2.18020800000000E+0006 699
 2.18092400000000E+0006 716
 2.18163400000000E+0006 710
 2.18234400000000E+0006 710
 2.18304500000000E+0006 701
 2.18375500000000E+0006 710
 2.18446500000000E+0006 710
 2.18515800000000E+0006 693
 2.18587200000000E+0006 714
 2.18658200000000E+0006 710
 2.18729800000000E+0006 716
 2.18800300000000E+0006 705
 2.18873100000000E+0006 728
 2.18944700000000E+0006 716
 2.19015000000000E+0006 703
 2.19086000000000E+0006 710
 2.19157200000000E+0006 712
 2.19228600000000E+0006 714
 2.19298300000000E+0006 697
 2.19370700000000E+0006 724
 2.19441900000000E+0006 712
 2.19512800000000E+0006 709
 2.19582500000000E+0006 697
 2.19654700000000E+0006 722
 2.19725200000000E+0006 705
 2.19794700000000E+0006 695
 2.19864600000000E+0006 699
 2.19935100000000E+0006 705
 2.20007100000000E+0006 720
 2.20079700000000E+0006 726
 2.20154700000000E+0006 750
 2.20227100000000E+0006 724
 2.20298300000000E+0006 712
 2.20369300000000E+0006 710
 2.20441300000000E+0006 720
 2.20513700000000E+0006 724
 2.20585300000000E+0006 716
 2.20657700000000E+0006 724
 2.20729900000000E+0006 722
 2.20801500000000E+0006 716
 2.20873700000000E+0006 722
 2.20947500000000E+0006 738
 2.21021300000000E+0006 738
 2.21095100000000E+0006 738
 2.21170600000000E+0006 755
 2.21243800000000E+0006 732
 2.21315000000000E+0006 712
 2.21384900000000E+0006 699
 2.21455400000000E+0006 705
 2.21526300000000E+0006 709
 2.21595000000000E+0006 687
 2.21666400000000E+0006 714
 2.21739200000000E+0006 728
 2.21811400000000E+0006 722
 2.21883200000000E+0006 718
 2.21957200000000E+0006 740
 2.22031000000000E+0006 738
 2.22103400000000E+0006 724
 2.22176800000000E+0006 734
 2.22249400000000E+0006 726
 2.22322600000000E+0006 732
 2.22394200000000E+0006 716
 2.22467200000000E+0006 730
 2.22539400000000E+0006 722
 2.22610600000000E+0006 712
 2.22680300000000E+0006 697
 2.22751900000000E+0006 716
 2.22823700000000E+0006 718
 2.22894900000000E+0006 712
 2.22967500000000E+0006 726
 2.23041700000000E+0006 742
 2.23116100000000E+0006 744
 2.23190100000000E+0006 740
 2.23264500000000E+0006 744
 2.23336500000000E+0006 720
 2.23406800000000E+0006 703
 2.23476500000000E+0006 697
 2.23546000000000E+0006 695
 2.23615500000000E+0006 695
 2.23682300000000E+0006 668
 2.23751600000000E+0006 693
 2.23822500000000E+0006 709
 2.23894100000000E+0006 716
 2.23964400000000E+0006 703
 2.24036600000000E+0006 722
 2.24109000000000E+0006 724
 2.24182600000000E+0006 736
 2.24256000000000E+0006 734
 2.24330600000000E+0006 746
 2.24402600000000E+0006 720
 2.24473600000000E+0006 710
 2.24544100000000E+0006 705
 2.24616300000000E+0006 722
 2.24687700000000E+0006 714
 2.24758600000000E+0006 709
 2.24829800000000E+0006 712
 2.24900800000000E+0006 710
 2.24972400000000E+0006 716
 2.25042700000000E+0006 703
 2.25115100000000E+0006 724
 2.25186300000000E+0006 712
 2.25256000000000E+0006 697
 2.25326100000000E+0006 701
 2.25394800000000E+0006 687
 2.25463500000000E+0006 687
 2.25531800000000E+0006 683
 2.25601900000000E+0006 701
 2.25671800000000E+0006 699
 2.25740700000000E+0006 689
 2.25811000000000E+0006 703
 2.25881500000000E+0006 705
 2.25951600000000E+0006 701
 2.26018900000000E+0006 673
 2.26086200000000E+0006 673
 2.26152400000000E+0006 662
 2.26216400000000E+0006 640
 2.26281000000000E+0006 646
 2.26345000000000E+0006 640
 2.26407700000000E+0006 627
 2.26470900000000E+0006 632
 2.26533900000000E+0006 630
 2.26596600000000E+0006 627
 2.26659100000000E+0006 625
 2.26722900000000E+0006 638
 2.26786100000000E+0006 632
 2.26850300000000E+0006 642
 2.26913500000000E+0006 632
 2.26978300000000E+0006 648
 2.27044500000000E+0006 662
 2.27111600000000E+0006 671
 2.27177400000000E+0006 658
 2.27245300000000E+0006 679
 2.27313800000000E+0006 685
 2.27382500000000E+0006 687
 2.27450600000000E+0006 681
 2.27521800000000E+0006 712
 2.27593000000000E+0006 712
 2.27662300000000E+0006 693
 2.27730800000000E+0006 685
 2.27801700000000E+0006 709
 2.27872600000000E+0006 709
 2.27941900000000E+0006 693
 2.28010600000000E+0006 687
 2.28081500000000E+0006 709
 2.28151600000000E+0006 701
 2.28220700000000E+0006 691
 2.28289000000000E+0006 683
 2.28359100000000E+0006 701
 2.28428800000000E+0006 697
 2.28497900000000E+0006 691
 2.28565600000000E+0006 677
 2.28636500000000E+0006 709
 2.28706400000000E+0006 699
 2.28774100000000E+0006 677
 2.28841800000000E+0006 677
 2.28910700000000E+0006 689
 2.28979200000000E+0006 685
 2.29045600000000E+0006 664
 2.29112700000000E+0006 671
 2.29182400000000E+0006 697
 2.29252900000000E+0006 705
 2.29322000000000E+0006 691
 2.29391500000000E+0006 695
 2.29462700000000E+0006 712
 2.29533600000000E+0006 709
 2.29602900000000E+0006 693
 2.29673600000000E+0006 707
 2.29744500000000E+0006 709
 2.29815000000000E+0006 705
 2.29885100000000E+0006 701
 2.29957100000000E+0006 720
 2.30028700000000E+0006 716
 2.30099000000000E+0006 703
 2.30170000000000E+0006 710
 2.30241200000000E+0006 712
 2.30312200000000E+0006 710
 2.30383200000000E+0006 710
 2.30456000000000E+0006 728
 2.30528000000000E+0006 720
 2.30598500000000E+0006 705
 2.30669900000000E+0006 714
 2.30742100000000E+0006 722
 2.30813100000000E+0006 710
 2.30881800000000E+0006 687
 2.30951500000000E+0006 697
 2.31021000000000E+0006 695
 2.31091300000000E+0006 703
 2.31159200000000E+0006 679
 2.31230100000000E+0006 709
 2.31299800000000E+0006 697
 2.31368500000000E+0006 687
 2.31436200000000E+0006 677
 2.31505700000000E+0006 695
 2.31575400000000E+0006 697
 2.31644700000000E+0006 693
 2.31717300000000E+0006 726
 2.31791700000000E+0006 744
 2.31865700000000E+0006 740
 2.31943200000000E+0006 775
 2.32020500000000E+0006 773
 2.32093900000000E+0006 734
 2.32169400000000E+0006 755
 2.32244000000000E+0006 746
 2.32315600000000E+0006 716
 2.32387800000000E+0006 722
 2.32458300000000E+0006 705
 2.32530700000000E+0006 724
 2.32602700000000E+0006 720
 2.32676300000000E+0006 736
 2.32750100000000E+0006 738
 2.32826400000000E+0006 763
 2.32900400000000E+0006 740
 2.32974600000000E+0006 742
 2.33048200000000E+0006 736
 2.33121600000000E+0006 734
 2.33193000000000E+0006 714
 2.33263700000000E+0006 707
 2.33333800000000E+0006 701
 2.33404800000000E+0006 710
 2.33475800000000E+0006 710
 2.33545700000000E+0006 699
 2.33615800000000E+0006 701
 2.33685700000000E+0006 699
 2.33755800000000E+0006 701
 2.33824900000000E+0006 691
 2.33898100000000E+0006 732
 2.33971100000000E+0006 730
 2.34044700000000E+0006 736
 2.34117500000000E+0006 728
 2.34189300000000E+0006 718
 2.34261100000000E+0006 718
 2.34329400000000E+0006 683
 2.34399300000000E+0006 699
 2.34468000000000E+0006 687
 2.34535900000000E+0006 679
 2.34602500000000E+0006 666
 2.34672200000000E+0006 697
 2.34741700000000E+0006 695
 2.34810000000000E+0006 683
 2.34878700000000E+0006 687
 2.34950300000000E+0006 716
 2.35023100000000E+0006 728
 2.35095100000000E+0006 720
 2.35166900000000E+0006 718
 2.35239900000000E+0006 730
 2.35311900000000E+0006 720
 2.35382200000000E+0006 703
 2.35452500000000E+0006 703
 2.35523000000000E+0006 705
 2.35593300000000E+0006 703
 2.35660400000000E+0006 671
 2.35728900000000E+0006 685
 2.35798000000000E+0006 691
 2.35867100000000E+0006 691
 2.35934200000000E+0006 671
 2.36002100000000E+0006 679
 2.36071800000000E+0006 697
 2.36142700000000E+0006 709
 2.36211200000000E+0006 685
 2.36281900000000E+0006 707
 2.36353500000000E+0006 716
 2.36424900000000E+0006 714
 2.36495600000000E+0006 707
 2.36566800000000E+0006 712
 2.36638000000000E+0006 712
 2.36707900000000E+0006 699
 2.36775400000000E+0006 675
 2.36845500000000E+0006 701
 2.36914400000000E+0006 689
 2.36981900000000E+0006 675
 2.37049200000000E+0006 673
 2.37120200000000E+0006 710
 2.37191800000000E+0006 716
 2.37263000000000E+0006 712
 2.37334800000000E+0006 718
 2.37407000000000E+0006 722
 2.37478800000000E+0006 718
 2.37548500000000E+0006 697
 2.37619700000000E+0006 712
 2.37689600000000E+0006 699
 2.37757700000000E+0006 681
 2.37825000000000E+0006 673
 2.37894300000000E+0006 693
 2.37963000000000E+0006 687
 2.38029400000000E+0006 664
 2.38096700000000E+0006 673
 2.38166600000000E+0006 699
 2.38237300000000E+0006 707
 2.38307400000000E+0006 701
 2.38378100000000E+0006 707
 2.38450100000000E+0006 720
 2.38521700000000E+0006 716
 2.38592200000000E+0006 705
 2.38662100000000E+0006 699
 2.38732000000000E+0006 699
 2.38800500000000E+0006 685
 2.38866700000000E+0006 662
 2.38935400000000E+0006 687
 2.39004700000000E+0006 693
 2.39073600000000E+0006 689
 2.39141300000000E+0006 677
 2.39209400000000E+0006 681
 2.39278100000000E+0006 687
 2.39347000000000E+0006 689
 2.39413800000000E+0006 668
 2.39481900000000E+0006 681
 2.39551200000000E+0006 693
 2.39620100000000E+0006 689
 2.39687800000000E+0006 677
 2.39757700000000E+0006 699
 2.39827400000000E+0006 697
 2.39895700000000E+0006 683
 2.39963400000000E+0006 677
 2.40033300000000E+0006 699
 2.40103200000000E+0006 699
 2.40170500000000E+0006 673
 2.40236900000000E+0006 664
 2.40305000000000E+0006 681
 2.40372700000000E+0006 677
 2.40438100000000E+0006 654
 2.40505200000000E+0006 671
 2.40575100000000E+0006 699
 2.40644600000000E+0006 695
 2.40713500000000E+0006 689
 2.40784000000000E+0006 705
 2.40857600000000E+0006 736
 2.40929400000000E+0006 718
 2.40998500000000E+0006 691
 2.41067200000000E+0006 687
 2.41135500000000E+0006 683
 2.41203200000000E+0006 677
 2.41267800000000E+0006 646
 2.41334400000000E+0006 666
 2.41401200000000E+0006 668
 2.41467200000000E+0006 660
 2.41532800000000E+0006 656
 2.41601500000000E+0006 687
 2.41670000000000E+0006 685
 2.41736800000000E+0006 668
 2.41804500000000E+0006 677
 2.41873800000000E+0006 693
 2.41942700000000E+0006 689
 2.42009600000000E+0006 669
 2.42077500000000E+0006 679
 2.42146400000000E+0006 689
 2.42214700000000E+0006 683
 2.42281600000000E+0006 669
 2.42351100000000E+0006 695
 2.42420400000000E+0006 693
 2.42488900000000E+0006 685
 2.42557000000000E+0006 681
 2.42627500000000E+0006 705
 2.42697800000000E+0006 703
 2.42767900000000E+0006 701
 2.42838800000000E+0006 709
 2.42910800000000E+0006 720
 2.42980900000000E+0006 701
 2.43050800000000E+0006 699
 2.43121300000000E+0006 705
 2.43192200000000E+0006 709
 2.43261700000000E+0006 695
 2.43329200000000E+0006 675
 2.43397100000000E+0006 679
 2.43464000000000E+0006 669
 2.43530000000000E+0006 660
 2.43594800000000E+0006 648
 2.43661600000000E+0006 668
 2.43729300000000E+0006 677
 2.43796400000000E+0006 671
 2.43863500000000E+0006 671
 2.43932200000000E+0006 687
 2.44001700000000E+0006 695
 2.44071000000000E+0006 693
 2.44140700000000E+0006 697
 2.44210800000000E+0006 701
 2.44280900000000E+0006 701
 2.44350600000000E+0006 697
 2.44420500000000E+0006 699
 2.44489600000000E+0006 691
 2.44557500000000E+0006 679
 2.44626000000000E+0006 685
 2.44693900000000E+0006 679
 2.44759500000000E+0006 656
 2.44825500000000E+0006 660
 2.44892600000000E+0006 671
 2.44959400000000E+0006 668
 2.45025600000000E+0006 662
 2.45093300000000E+0006 677
 2.45160600000000E+0006 673
 2.45226600000000E+0006 660
 2.45293200000000E+0006 666
 2.45360300000000E+0006 671
 2.45426500000000E+0006 662
 2.45490900000000E+0006 644
 2.45555500000000E+0006 646
 2.45619900000000E+0006 644
 2.45682600000000E+0006 627
 2.45746000000000E+0006 634
 2.45810000000000E+0006 640
 2.45873200000000E+0006 632
 2.45936200000000E+0006 630
 2.46000800000000E+0006 646
 2.46065200000000E+0006 644
 2.46128400000000E+0006 632
 2.46191600000000E+0006 632
 2.46256200000000E+0006 646
 2.46320200000000E+0006 640
 2.46383400000000E+0006 632
 2.46446600000000E+0006 632
 2.46510800000000E+0006 642
 2.46574600000000E+0006 638
 2.46638000000000E+0006 634
 2.46703400000000E+0006 654
 2.46769000000000E+0006 656
 2.46834200000000E+0006 652
 2.46900400000000E+0006 662
 2.46966600000000E+0006 662
 2.47032200000000E+0006 656
 2.47096600000000E+0006 644
 2.47162000000000E+0006 654
 2.47227600000000E+0006 656
 2.47292400000000E+0006 648
 2.47357000000000E+0006 646
 2.47422600000000E+0006 656
 2.47487600000000E+0006 650
 2.47552000000000E+0006 644
 2.47617600000000E+0006 656
 2.47684000000000E+0006 664
 2.47750200000000E+0006 662
 2.47815400000000E+0006 652
 2.47881800000000E+0006 664
 2.47949300000000E+0006 675
 2.48017000000000E+0006 677
 2.48084500000000E+0006 675
 2.48152600000000E+0006 681
 2.48219700000000E+0006 671
 2.48285300000000E+0006 656
 2.48350300000000E+0006 650
 2.48416500000000E+0006 662
 2.48481700000000E+0006 652
 2.48546100000000E+0006 644
 2.48613200000000E+0006 671
 2.48680000000000E+0006 668
 2.48746400000000E+0006 664
 2.48814900000000E+0006 685
 2.48884400000000E+0006 695
 2.48953100000000E+0006 687
 2.49021000000000E+0006 679
 2.49089500000000E+0006 685
 2.49157000000000E+0006 675
 2.49223800000000E+0006 668
 2.49288800000000E+0006 650
 2.49355000000000E+0006 662
 2.49420800000000E+0006 658
 2.49486000000000E+0006 652
 2.49552600000000E+0006 666
 2.49619200000000E+0006 666
 2.49685600000000E+0006 664
 2.49752500000000E+0006 669
 2.49820400000000E+0006 679
 2.49888100000000E+0006 677
 2.49954100000000E+0006 660
 2.50021200000000E+0006 671
 2.50088100000000E+0006 669
 2.50153500000000E+0006 654
 2.50217900000000E+0006 644
 2.50283300000000E+0006 654
 2.50348100000000E+0006 648
 2.50411100000000E+0006 630
 2.50475500000000E+0006 644
 2.50540700000000E+0006 652
 2.50605500000000E+0006 648
 2.50669900000000E+0006 644
 2.50736700000000E+0006 668
 2.50804000000000E+0006 673
 2.50871100000000E+0006 671
 2.50938200000000E+0006 671
 2.51006500000000E+0006 683
 2.51074200000000E+0006 677
 2.51139800000000E+0006 656
 2.51206400000000E+0006 666
 2.51272400000000E+0006 660
 2.51336200000000E+0006 638
 2.51398500000000E+0006 623
 2.51462300000000E+0006 638
 2.51529100000000E+0006 668
 2.51596200000000E+0006 671
 2.51663900000000E+0006 677
 2.51733800000000E+0006 699
 2.51804800000000E+0006 710
 2.51876000000000E+0006 712
 2.51947400000000E+0006 714
 2.52017900000000E+0006 705
 2.52086200000000E+0006 683
 2.52151200000000E+0006 650
 2.52214600000000E+0006 634
 2.52277100000000E+0006 625
 2.52337600000000E+0006 605
 2.52398900000000E+0006 613
 2.52461600000000E+0006 627
 2.52524100000000E+0006 625
 2.52586400000000E+0006 623
 2.52651200000000E+0006 648
 2.52716400000000E+0006 652
 2.52781800000000E+0006 654
 2.52845400000000E+0006 636
 2.52908200000000E+0006 628
 2.52973800000000E+0006 656
 2.53040700000000E+0006 669
 2.53106500000000E+0006 658
 2.53173800000000E+0006 673
 2.53241900000000E+0006 681
 2.53309800000000E+0006 679
 2.53376600000000E+0006 668
 2.53444700000000E+0006 681
 2.53511800000000E+0006 671
 2.53577400000000E+0006 656
 2.53643400000000E+0006 660
 2.53710500000000E+0006 671
 2.53777600000000E+0006 671
 2.53844000000000E+0006 664
 2.53909800000000E+0006 658
 2.53976900000000E+0006 671
 2.54043300000000E+0006 664
 2.54108700000000E+0006 654
 2.54175300000000E+0006 666
 2.54242100000000E+0006 668
 2.54308300000000E+0006 662
 2.54375200000000E+0006 669
 2.54444100000000E+0006 689
 2.54512800000000E+0006 687
 2.54580500000000E+0006 677
 2.54649800000000E+0006 693
 2.54718100000000E+0006 683
 2.54784700000000E+0006 666
 2.54850700000000E+0006 660
 2.54917800000000E+0006 671
 2.54984700000000E+0006 669
 2.55050300000000E+0006 656
 2.55118200000000E+0006 679
 2.55186100000000E+0006 679
 2.55253400000000E+0006 673
 2.55321100000000E+0006 677
 2.55389200000000E+0006 681
 2.55457700000000E+0006 685
 2.55525000000000E+0006 673
 2.55593300000000E+0006 683
 2.55660200000000E+0006 669
 2.55725800000000E+0006 656
 2.55791200000000E+0006 654
 2.55858500000000E+0006 673
 2.55925300000000E+0006 668
 2.55990100000000E+0006 648
 2.56055900000000E+0006 658
 2.56122500000000E+0006 666
 2.56188500000000E+0006 660
 2.56254100000000E+0006 656
 2.56320900000000E+0006 668
 2.56388400000000E+0006 675
 2.56454200000000E+0006 658
 2.56521000000000E+0006 668
 2.56587800000000E+0006 668
 2.56654000000000E+0006 662
 2.56720800000000E+0006 668
 2.56788500000000E+0006 677
 2.56856000000000E+0006 675
 2.56922600000000E+0006 666
 2.56988800000000E+0006 662
 2.57054000000000E+0006 652
 2.57117400000000E+0006 634
 2.57181600000000E+0006 642
 2.57244400000000E+0006 628
 2.57308400000000E+0006 640
 2.57370900000000E+0006 625
 2.57430600000000E+0006 597
 2.57489000000000E+0006 584
 2.57546200000000E+0006 572
 2.57602800000000E+0006 566
 2.57659800000000E+0006 570
 2.57716600000000E+0006 568
 2.57773600000000E+0006 570
 2.57830800000000E+0006 572
 2.57889200000000E+0006 584
 2.57948700000000E+0006 595
 2.58010400000000E+0006 617
 2.58075200000000E+0006 648
 2.58145100000000E+0006 699
 2.58225100000000E+0006 800
 2.58304500000000E+0006 794
 2.58385100000000E+0006 806
 2.58466900000000E+0006 818
 2.58541300000000E+0006 744
 2.58614900000000E+0006 736
 2.58687300000000E+0006 724
 2.58758300000000E+0006 710
 2.58828400000000E+0006 701
 2.58896100000000E+0006 677
 2.58963200000000E+0006 671
 2.59032900000000E+0006 697
 2.59103600000000E+0006 707
 2.59175600000000E+0006 720
 2.59253300000000E+0006 777
 2.59327100000000E+0006 738
 2.59404600000000E+0006 775
 2.59485000000000E+0006 804
 2.59557800000000E+0006 728
 2.59631000000000E+0006 732
 2.59703000000000E+0006 720
 2.59774000000000E+0006 710
 2.59843700000000E+0006 697
 2.59913000000000E+0006 693
 2.59980700000000E+0006 677
 2.60050200000000E+0006 695
 2.60119700000000E+0006 695
 2.60189600000000E+0006 699
 2.60259300000000E+0006 697
 2.60330900000000E+0006 716
 2.60401400000000E+0006 705
 2.60471700000000E+0006 703
 2.60541000000000E+0006 693
 2.60611700000000E+0006 707
 2.60681800000000E+0006 701
 2.60751500000000E+0006 697
 2.60821200000000E+0006 697
 2.60892600000000E+0006 714
 2.60962700000000E+0006 701
 2.61031800000000E+0006 691
 2.61101900000000E+0006 701
 2.61171800000000E+0006 699
 2.61241100000000E+0006 693
 2.61309800000000E+0006 687
 2.61379500000000E+0006 697
 2.61449600000000E+0006 701
 2.61518500000000E+0006 689
 2.61587600000000E+0006 691
 2.61659600000000E+0006 720
 2.61732200000000E+0006 726
 2.61802900000000E+0006 707
 2.61872000000000E+0006 691
 2.61941500000000E+0006 695
 2.62010200000000E+0006 687
 2.62077100000000E+0006 669
 2.62143300000000E+0006 662
 2.62211000000000E+0006 677
 2.62279100000000E+0006 681
 2.62345100000000E+0006 660
 2.62411100000000E+0006 660
 2.62479600000000E+0006 685
 2.62547700000000E+0006 681
 2.62613500000000E+0006 658
 2.62679500000000E+0006 660
 2.62748000000000E+0006 685
 2.62816100000000E+0006 681
 2.62883400000000E+0006 673
 2.62951700000000E+0006 683
 2.63022000000000E+0006 703
 2.63090900000000E+0006 689
 2.63157800000000E+0006 669
 2.63224600000000E+0006 668
 2.63292300000000E+0006 677
 2.63358500000000E+0006 662
 2.63421000000000E+0006 625
 2.63481500000000E+0006 605
 2.63542200000000E+0006 607
 2.63606800000000E+0006 646
 2.63671600000000E+0006 648
 2.63735600000000E+0006 640
 2.63801400000000E+0006 658
 2.63871500000000E+0006 701
 2.63941000000000E+0006 695
 2.64011500000000E+0006 705
 2.64083900000000E+0006 724
 2.64157300000000E+0006 734
 2.64229100000000E+0006 718
 2.64300500000000E+0006 714
 2.64369200000000E+0006 687
 2.64438300000000E+0006 691
 2.64505200000000E+0006 669
 2.64569400000000E+0006 642
 2.64633600000000E+0006 642
 2.64700700000000E+0006 671
 2.64769200000000E+0006 685
 2.64836000000000E+0006 668
 2.64905100000000E+0006 691
 2.64975600000000E+0006 705
 2.65045900000000E+0006 703
 2.65115800000000E+0006 699
 2.65188400000000E+0006 726
 2.65259400000000E+0006 710
 2.65330800000000E+0006 714
 2.65402000000000E+0006 712
 2.65473400000000E+0006 714
 2.65543100000000E+0006 697
 2.65612800000000E+0006 697
 2.65681900000000E+0006 691
 2.65750000000000E+0006 681
 2.65818300000000E+0006 683
 2.65884300000000E+0006 660
 2.65952000000000E+0006 677
 2.66021500000000E+0006 695
 2.66091000000000E+0006 695
 2.66161500000000E+0006 705
 2.66234900000000E+0006 734
 2.66305900000000E+0006 710
 2.66377900000000E+0006 720
 2.66449900000000E+0006 720
 2.66521100000000E+0006 712
 2.66591600000000E+0006 705
 2.66658900000000E+0006 673
 2.66725800000000E+0006 669
 2.66794100000000E+0006 683
 2.66861800000000E+0006 677
 2.66927800000000E+0006 660
 2.66994900000000E+0006 671
 2.67063600000000E+0006 687
 2.67131500000000E+0006 679
 2.67197500000000E+0006 660
 2.67265200000000E+0006 677
 2.67334300000000E+0006 691
 2.67402400000000E+0006 681
 2.67469700000000E+0006 673
 2.67538400000000E+0006 687
 2.67606900000000E+0006 685
 2.67674000000000E+0006 671
 2.67740800000000E+0006 668
 2.67808300000000E+0006 675
 2.67875400000000E+0006 671
 2.67941000000000E+0006 656
 2.68008100000000E+0006 671
 2.68076200000000E+0006 681
 2.68143700000000E+0006 675
 2.68210500000000E+0006 668
 2.68279800000000E+0006 693
 2.68348700000000E+0006 689
 2.68416000000000E+0006 673
 2.68483700000000E+0006 677
 2.68553200000000E+0006 695
 2.68622700000000E+0006 695
 2.68690200000000E+0006 675
 2.68757700000000E+0006 675
 2.68827000000000E+0006 693
 2.68894900000000E+0006 679
 2.68960700000000E+0006 658
 2.69027100000000E+0006 664
 2.69094600000000E+0006 675
 2.69160400000000E+0006 658
 2.69224800000000E+0006 644
 2.69290800000000E+0006 660
 2.69357400000000E+0006 666
 2.69423600000000E+0006 662
 2.69488600000000E+0006 650
 2.69556900000000E+0006 683
 2.69625000000000E+0006 681
 2.69692100000000E+0006 671
 2.69758700000000E+0006 666
 2.69828200000000E+0006 695
 2.69896900000000E+0006 687
 2.69964400000000E+0006 675
 2.70032500000000E+0006 681
 2.70100600000000E+0006 681
 2.70167900000000E+0006 673
 2.70232900000000E+0006 650
 2.70298900000000E+0006 660
 2.70366400000000E+0006 675
 2.70432200000000E+0006 658
 2.70497200000000E+0006 650
 2.70562600000000E+0006 654
 2.70630500000000E+0006 679
 2.70697600000000E+0006 671
 2.70763400000000E+0006 658
 2.70830700000000E+0006 673
 2.70899800000000E+0006 691
 2.70968500000000E+0006 687
 2.71034700000000E+0006 662
 2.71100900000000E+0006 662
 2.71169000000000E+0006 681
 2.71235800000000E+0006 668
 2.71302200000000E+0006 664
 2.71370500000000E+0006 683
 2.71441700000000E+0006 712
 2.71512600000000E+0006 709
 2.71581700000000E+0006 691
 2.71650000000000E+0006 683
 2.71719700000000E+0006 697
 2.71788600000000E+0006 689
 2.71855500000000E+0006 669
 2.71923200000000E+0006 677
 2.71991700000000E+0006 685
 2.72060200000000E+0006 685
 2.72127100000000E+0006 669
 2.72194600000000E+0006 675
 2.72265300000000E+0006 707
 2.72336000000000E+0006 707
 2.72406300000000E+0006 703
 2.72478700000000E+0006 724
 2.72553300000000E+0006 746
 2.72625700000000E+0006 724
 2.72696200000000E+0006 705
 2.72765300000000E+0006 691
 2.72834800000000E+0006 695
 2.72902700000000E+0006 679
 2.72968900000000E+0006 662
 2.73035300000000E+0006 664
 2.73104200000000E+0006 689
 2.73172500000000E+0006 683
 2.73238300000000E+0006 658
 2.73304100000000E+0006 658
 2.73371600000000E+0006 675
 2.73438900000000E+0006 673
 2.73504300000000E+0006 654
 2.73571200000000E+0006 669
 2.73640900000000E+0006 697
 2.73711200000000E+0006 703
 2.73779100000000E+0006 679
 2.73847000000000E+0006 679
 2.73916700000000E+0006 697
 2.73985000000000E+0006 683
 2.74051200000000E+0006 662
 2.74118100000000E+0006 669
 2.74186600000000E+0006 685
 2.74254700000000E+0006 681
 2.74322000000000E+0006 673
 2.74386200000000E+0006 642
 2.74448300000000E+0006 621
 2.74509400000000E+0006 611
 2.74573000000000E+0006 636
 2.74634900000000E+0006 619
 2.74700100000000E+0006 652
 2.74768200000000E+0006 681
 2.74836700000000E+0006 685
 2.74903600000000E+0006 669
 2.74970200000000E+0006 666
 2.75039100000000E+0006 689
 2.75108800000000E+0006 697
 2.75176100000000E+0006 673
 2.75241500000000E+0006 654
 2.75308300000000E+0006 668
 2.75376800000000E+0006 685
 2.75445300000000E+0006 685
 2.75513200000000E+0006 679
 2.75583700000000E+0006 705
 2.75656300000000E+0006 726
 2.75728100000000E+0006 718
 2.75797400000000E+0006 693
 2.75865300000000E+0006 679
 2.75934400000000E+0006 691
 2.76002500000000E+0006 681
 2.76069300000000E+0006 668
 2.76135100000000E+0006 658
 2.76203400000000E+0006 683
 2.76273700000000E+0006 703
 2.76342800000000E+0006 691
 2.76409700000000E+0006 669
 2.76478200000000E+0006 685
 2.76546900000000E+0006 687
 2.76615000000000E+0006 681
 2.76680200000000E+0006 652
 2.76745400000000E+0006 652
 2.76812300000000E+0006 669
 2.76878700000000E+0006 664
 2.76942900000000E+0006 642
 2.77007500000000E+0006 646
 2.77075400000000E+0006 679
 2.77144300000000E+0006 689
 2.77213000000000E+0006 687
 2.77280100000000E+0006 671
 2.77348800000000E+0006 687
 2.77419300000000E+0006 705
 2.77489400000000E+0006 701
 2.77557500000000E+0006 681
 2.77626600000000E+0006 691
 2.77697100000000E+0006 705
 2.77766400000000E+0006 693
 2.77833700000000E+0006 673
 2.77901600000000E+0006 679
 2.77971700000000E+0006 701
 2.78041200000000E+0006 695
 2.78108500000000E+0006 673
 2.78175600000000E+0006 671
 2.78245700000000E+0006 701
 2.78314400000000E+0006 687
 2.78381500000000E+0006 671
 2.78448100000000E+0006 666
 2.78517000000000E+0006 689
 2.78585500000000E+0006 685
 2.78652400000000E+0006 669
 2.78720500000000E+0006 681
 2.78791200000000E+0006 707
 2.78861700000000E+0006 705
 2.78930400000000E+0006 687
 2.78998300000000E+0006 679
 2.79068600000000E+0006 703
 2.79137100000000E+0006 685
 2.79203500000000E+0006 664
 2.79267900000000E+0006 644
 2.79334300000000E+0006 664
 2.79400700000000E+0006 664
 2.79466100000000E+0006 654
 2.79530900000000E+0006 648
 2.79598000000000E+0006 671
 2.79667300000000E+0006 693
 2.79736200000000E+0006 689
 2.79804100000000E+0006 679
 2.79872200000000E+0006 681
 2.79941500000000E+0006 693
 2.80010400000000E+0006 689
 2.80077000000000E+0006 666
 2.80143900000000E+0006 669
 2.80212400000000E+0006 685
 2.80280100000000E+0006 677
 2.80345700000000E+0006 656
 2.80410700000000E+0006 650
 2.80478400000000E+0006 677
 2.80546300000000E+0006 679
 2.80613100000000E+0006 668
 2.80677700000000E+0006 646
 2.80743300000000E+0006 656
 2.80809100000000E+0006 658
 2.80874500000000E+0006 654
 2.80938500000000E+0006 640
 2.81002300000000E+0006 638
 2.81066100000000E+0006 638
 2.81129900000000E+0006 638
 2.81193500000000E+0006 636
 2.81256900000000E+0006 634
 2.81319400000000E+0006 625
 2.81382200000000E+0006 628
 2.81449900000000E+0006 677
 2.81517600000000E+0006 677
 2.81584500000000E+0006 669
 2.81651100000000E+0006 666
 2.81715900000000E+0006 648
 2.81779100000000E+0006 632
 2.81842700000000E+0006 636
 2.81907900000000E+0006 652
 2.81974500000000E+0006 666
 2.82040700000000E+0006 662
 2.82105900000000E+0006 652
 2.82171100000000E+0006 652
 2.82237500000000E+0006 664
 2.82304800000000E+0006 673
 2.82371000000000E+0006 662
 2.82434600000000E+0006 636
 2.82497400000000E+0006 628
 2.82560400000000E+0006 630
 2.82623800000000E+0006 634
 2.82686600000000E+0006 628
 2.82748100000000E+0006 615
 2.82811100000000E+0006 630
 2.82875500000000E+0006 644
 2.82941700000000E+0006 662
 2.83008500000000E+0006 668
 2.83073500000000E+0006 650
 2.83136300000000E+0006 628
 2.83197800000000E+0006 615
 2.83257900000000E+0006 601
 2.83317200000000E+0006 593
 2.83376900000000E+0006 597
 2.83436400000000E+0006 595
 2.83495100000000E+0006 587
 2.83553500000000E+0006 584
 2.83612000000000E+0006 585
 2.83669800000000E+0006 578
 2.83728700000000E+0006 589
 2.83789400000000E+0006 607
 2.83850900000000E+0006 615
 2.83912800000000E+0006 619
 2.83973900000000E+0006 611
 2.84034800000000E+0006 609
 2.84095300000000E+0006 605
 2.84154600000000E+0006 593
 2.84213500000000E+0006 589
 2.84270900000000E+0006 574
 2.84328300000000E+0006 574
 2.84385700000000E+0006 574
 2.84442300000000E+0006 566
 2.84499500000000E+0006 572
 2.84556500000000E+0006 570
 2.84613900000000E+0006 574
 2.84674000000000E+0006 601
 2.84737200000000E+0006 632
 2.84808200000000E+0006 710
 2.84895500000000E+0006 873
 2.84990800000000E+0006 953
 2.85075300000000E+0006 845
 2.85152800000000E+0006 775
 2.85227600000000E+0006 748
 2.85300000000000E+0006 724
 2.85369700000000E+0006 697
 2.85436800000000E+0006 671
 2.85503900000000E+0006 671
 2.85573000000000E+0006 691
 2.85643700000000E+0006 707
 2.85714900000000E+0006 712
 2.85786500000000E+0006 716
 2.85856000000000E+0006 695
 2.85922900000000E+0006 669
 2.85987100000000E+0006 642
 2.86053100000000E+0006 660
 2.86120800000000E+0006 677
 2.86188500000000E+0006 677
 2.86255400000000E+0006 669
 2.86319600000000E+0006 642
 2.86382100000000E+0006 625
 2.86444600000000E+0006 625
 2.86507100000000E+0006 625
 2.86573100000000E+0006 660
 2.86642800000000E+0006 697
 2.86715600000000E+0006 728
 2.86789800000000E+0006 742
 2.86862000000000E+0006 722
 2.86933400000000E+0006 714
 2.87004400000000E+0006 710
 2.87075600000000E+0006 712
 2.87145100000000E+0006 695
 2.87212400000000E+0006 673
 2.87279900000000E+0006 675
 2.87349600000000E+0006 697
 2.87418500000000E+0006 689
 2.87485300000000E+0006 668
 2.87551900000000E+0006 666
 2.87622000000000E+0006 701
 2.87692100000000E+0006 701
 2.87760000000000E+0006 679
 2.87827700000000E+0006 677
 2.87898400000000E+0006 707
 2.87967900000000E+0006 695
 2.88035000000000E+0006 671
 2.88101900000000E+0006 669
 2.88170800000000E+0006 689
 2.88241300000000E+0006 705
 2.88310400000000E+0006 691
 2.88377500000000E+0006 671
 2.88445600000000E+0006 681
 2.88516100000000E+0006 705
 2.88587900000000E+0006 718
 2.88658200000000E+0006 703
 2.88726300000000E+0006 681
 2.88795200000000E+0006 689
 2.88865300000000E+0006 701
 2.88935000000000E+0006 697
 2.89002100000000E+0006 671
 2.89069600000000E+0006 675
 2.89139100000000E+0006 695
 2.89208200000000E+0006 691
 2.89274800000000E+0006 666
 2.89342900000000E+0006 681
 2.89413400000000E+0006 705
 2.89483300000000E+0006 699
 2.89551400000000E+0006 681
 2.89620500000000E+0006 691
 2.89690000000000E+0006 695
 2.89758700000000E+0006 687
 2.89825800000000E+0006 671
 2.89895100000000E+0006 693
 2.89964800000000E+0006 697
 2.90033100000000E+0006 683
 2.90100600000000E+0006 675
 2.90170700000000E+0006 701
 2.90240200000000E+0006 695
 2.90308100000000E+0006 679
 2.90375800000000E+0006 677
 2.90446300000000E+0006 705
 2.90516000000000E+0006 697
 2.90583900000000E+0006 679
 2.90651200000000E+0006 673
 2.90720700000000E+0006 695
 2.90789800000000E+0006 691
 2.90856400000000E+0006 666
 2.90923300000000E+0006 669
 2.90993200000000E+0006 699
 2.91062300000000E+0006 691
 2.91130000000000E+0006 677
 2.91196800000000E+0006 668
 2.91265500000000E+0006 687
 2.91336700000000E+0006 712
 2.91406600000000E+0006 699
 2.91474700000000E+0006 681
 2.91544400000000E+0006 697
 2.91614700000000E+0006 703
 2.91684200000000E+0006 695
 2.91751700000000E+0006 675
 2.91817500000000E+0006 658
 2.91884800000000E+0006 673
 2.91953300000000E+0006 685
 2.92020400000000E+0006 671
 2.92087300000000E+0006 669
 2.92156600000000E+0006 693
 2.92226700000000E+0006 701
 2.92295800000000E+0006 691
 2.92363900000000E+0006 681
 2.92434200000000E+0006 703
 2.92504100000000E+0006 699
 2.92572000000000E+0006 679
 2.92639900000000E+0006 679
 2.92707400000000E+0006 675
 2.92773800000000E+0006 664
 2.92838200000000E+0006 644
 2.92902600000000E+0006 644
 2.92966200000000E+0006 636
 2.93028700000000E+0006 625
 2.93092500000000E+0006 638
 2.93157100000000E+0006 646
 2.93220300000000E+0006 632
 2.93284500000000E+0006 642
 2.93350900000000E+0006 664
 2.93418000000000E+0006 671
 2.93483400000000E+0006 654
 2.93548400000000E+0006 650
 2.93615900000000E+0006 675
 2.93682500000000E+0006 666
 2.93745500000000E+0006 630
 2.93809900000000E+0006 644
 2.93872900000000E+0006 630
 2.93934200000000E+0006 613
 2.93994700000000E+0006 605
 2.94054200000000E+0006 595
 2.94113300000000E+0006 591
 2.94172000000000E+0006 587
 2.94229800000000E+0006 578
 2.94288000000000E+0006 582
 2.94346700000000E+0006 587
 2.94406400000000E+0006 597
 2.94465300000000E+0006 589
 2.94524000000000E+0006 587
 2.94584700000000E+0006 607
 2.94650100000000E+0006 654
 2.94716900000000E+0006 668
 2.94786200000000E+0006 693
 2.94856700000000E+0006 705
 2.94928500000000E+0006 718
 2.95002700000000E+0006 742
 2.95074900000000E+0006 722
 2.95145400000000E+0006 705
 2.95214500000000E+0006 691
 2.95285400000000E+0006 709
 2.95357200000000E+0006 718
 2.95427500000000E+0006 703
 2.95496800000000E+0006 693
 2.95566500000000E+0006 697
 2.95638900000000E+0006 724
 2.95709800000000E+0006 709
 2.95780500000000E+0006 707
 2.95850600000000E+0006 701
 2.95923400000000E+0006 728
 2.95995600000000E+0006 722
 2.96066100000000E+0006 705
 2.96135800000000E+0006 697
 2.96207800000000E+0006 720
 2.96278500000000E+0006 707
 2.96347400000000E+0006 689
 2.96415700000000E+0006 683
 2.96486900000000E+0006 712
 2.96557000000000E+0006 701
 2.96625900000000E+0006 689
 2.96695600000000E+0006 697
 2.96768600000000E+0006 730
 2.96839300000000E+0006 707
 2.96907400000000E+0006 681
 2.96976700000000E+0006 693
 2.97047600000000E+0006 709
 2.97117500000000E+0006 699
 2.97185800000000E+0006 683
 2.97254500000000E+0006 687
 2.97324800000000E+0006 703
 2.97394900000000E+0006 701
 2.97462400000000E+0006 675
 2.97530500000000E+0006 681
 2.97600400000000E+0006 699
 2.97670300000000E+0006 699
 2.97738800000000E+0006 685
 2.97808100000000E+0006 693
 2.97878400000000E+0006 703
 2.97947900000000E+0006 695
 2.98015600000000E+0006 677
 2.98085500000000E+0006 699
 2.98157300000000E+0006 718
 2.98228300000000E+0006 710
 2.98298000000000E+0006 697
 2.98368100000000E+0006 701
 2.98439500000000E+0006 714
 2.98510000000000E+0006 705
 2.98578900000000E+0006 689
 2.98649600000000E+0006 707
 2.98720100000000E+0006 705
 2.98788200000000E+0006 681
 2.98856500000000E+0006 683
 2.98926000000000E+0006 695
 2.98995100000000E+0006 691
 2.99062000000000E+0006 669
 2.99130900000000E+0006 689
 2.99201600000000E+0006 707
 2.99272500000000E+0006 709
 2.99342400000000E+0006 699
 2.99412500000000E+0006 701
 2.99482200000000E+0006 697
 2.99550100000000E+0006 679
 2.99617400000000E+0006 673
 2.99686300000000E+0006 689
 2.99755600000000E+0006 693
 2.99822700000000E+0006 671
 2.99890400000000E+0006 677
 2.99959900000000E+0006 695
 3.00029200000000E+0006 693
 3.00097300000000E+0006 681
 3.00167800000000E+0006 705
 3.00239200000000E+0006 714
 3.00308900000000E+0006 697
 3.00377800000000E+0006 689
 3.00448500000000E+0006 707
 3.00517800000000E+0006 693
 3.00584600000000E+0006 668
 3.00651200000000E+0006 666
 3.00718700000000E+0006 675
 3.00785500000000E+0006 668
 3.00850500000000E+0006 650
 3.00915900000000E+0006 654
 3.00983600000000E+0006 677
 3.01052300000000E+0006 687
 3.01119600000000E+0006 673
 3.01186000000000E+0006 664
 3.01254500000000E+0006 685
 3.01324200000000E+0006 697
 3.01393500000000E+0006 693
 3.01460300000000E+0006 668
 3.01528200000000E+0006 679
 3.01596700000000E+0006 685
 3.01664000000000E+0006 673
 3.01730000000000E+0006 660
 3.01797900000000E+0006 679
 3.01866600000000E+0006 687
 3.01934700000000E+0006 681
 3.02000900000000E+0006 662
 3.02068800000000E+0006 679
 3.02137900000000E+0006 691
 3.02207200000000E+0006 693
 3.02275300000000E+0006 681
 3.02343200000000E+0006 679
 3.02412700000000E+0006 695
 3.02481600000000E+0006 689
 3.02548700000000E+0006 671
 3.02615300000000E+0006 666
 3.02682600000000E+0006 673
 3.02749700000000E+0006 671
 3.02816100000000E+0006 664
 3.02881700000000E+0006 656
 3.02949400000000E+0006 677
 3.03017900000000E+0006 685
 3.03085000000000E+0006 671
 3.03150200000000E+0006 652
 3.03217000000000E+0006 668
 3.03285300000000E+0006 683
 3.03353400000000E+0006 681
 3.03419800000000E+0006 664
 3.03486700000000E+0006 669
 3.03556200000000E+0006 695
 3.03625500000000E+0006 693
 3.03692800000000E+0006 673
 3.03761500000000E+0006 687
 3.03833300000000E+0006 718
 3.03905700000000E+0006 724
 3.03975400000000E+0006 697
 3.04044900000000E+0006 695
 3.04116700000000E+0006 718
 3.04188100000000E+0006 714
 3.04257200000000E+0006 691
 3.04325100000000E+0006 679
 3.04395400000000E+0006 703
 3.04465300000000E+0006 699
 3.04532800000000E+0006 675
 3.04600300000000E+0006 675
 3.04670200000000E+0006 699
 3.04739900000000E+0006 697
 3.04807600000000E+0006 677
 3.04875900000000E+0006 683
 3.04945600000000E+0006 697
 3.05014300000000E+0006 687
 3.05081200000000E+0006 669
 3.05150300000000E+0006 691
 3.05220600000000E+0006 703
 3.05289900000000E+0006 693
 3.05358200000000E+0006 683
