552.00		552
1116.00		564
1701.00		585
2337.00		636
3042.00		705
3768.00		726
4469.00		701
5176.00		707
5910.00		734
6605.00		695
7294.00		689
7971.00		677
8639.00		668	
9260.00		621
9883.00		623
10531.00	648
11210.00	679
11903.00	693
12610.00	707
13348.00	738
14057.00	709
14777.00	720
15517.00	740
16210.00	693
16901.00	691
17582.00	681
18255.00	673
18926.00	671
19597.00	671
20276.00	679
20932.00	656
21586.00	654
22236.00	650
22904.00	668
23562.00	658
24198.00	636
24821.00	623
25436.00	615
26055.00	619
26685.00	630
27358.00	673
28076.00	718
28777.00	701
29505.00	728
30239.00	734
30940.00	701
31635.00	695
32351.00	716
33046.00	695
33739.00	693
34432.00	693
35101.00	669
35774.00	673
36451.00	677
37132.00	681
37819.00	687
38514.00	695
39226.00	712
39933.00	707
40638.00	705
41356.00	718
42063.00	707
42762.00	699
43459.00	697
44166.00	707
44853.00	687
45526.00	673
46201.00	675
46861.00	660
47509.00	648
48171.00	662
48850.00	679
49523.00	673
50191.00	668
50880.00	689
51567.00	687
52233.00	666
52916.00	683
53591.00	675
54260.00	669
54953.00	693
55634.00	681
56307.00	673
56996.00	689
57673.00	677
58313.00	640
58961.00	648
59621.00	660
60289.00	668
61015.00	726
61733.00	718
62447.00	714
63159.00	712
63856.00	697
64535.00	679
65201.00	666
65896.00	695
66589.00	693
67268.00	679
67949.00	681
68617.00	668
69273.00	656
69901.00	628
70518.00	617
71125.00	607
71750.00	625
72384.00	634
73020.00	636
73678.00	658
74361.00	683
75062.00	701
75763.00	701
76487.00	724
77197.00	710
77906.00	709
78616.00	710
79340.00	724
80049.00	709
80758.00	709
81465.00	707
82193.00	728
82905.00	712
83610.00	705
84330.00	720
85060.00	730
85772.00	712
86486.00	714
87232.00	746
87958.00	726
88676.00	718
89410.00	734
90156.00	746
90900.00	744
91628.00	728
92380.00	752
93102.00	722
93795.00	693
94507.00	712
95219.00	712
95926.00	707
96652.00	726
97394.00	742
98116.00	722
98823.00	707
99553.00	730
100287.00	734
100997.00	710
101690.00	693
102395.00	705
103080.00	685
103732.00	652
104355.00	623
105019.00	664
105661.00	642
106288.00	627
106895.00	607
107496.00	601
108103.00	607
108718.00	615
109337.00	619
109962.00	625
110604.00	642
111275.00	671
111946.00	671
112606.00	660
113287.00	681
113978.00	691
114646.00	668
115315.00	669
116012.00	697
116687.00	675
117347.00	660
118032.00	685
118713.00	681
119384.00	671
120065.00	681
120766.00	701
121445.00	679
122113.00	668
122814.00	701
123505.00	691
124178.00	673
124875.00	697
125591.00	716
126278.00	687
126975.00	697
127707.00	732
128416.00	709
129107.00	691
129819.00	712
130508.00	689
131160.00	652
131810.00	650
132444.00	634
133084.00	640
133720.00	636
134360.00	640
135037.00	677
135746.00	709
136443.00	697
137134.00	691
137856.00	722
138574.00	718
139273.00	699
139976.00	703
140724.00	748
141456.00	732
142182.00	726
142955.00	773
143742.00	787
144490.00	748
145236.00	746
145986.00	750
146710.00	724
147422.00	712
148174.00	752
148929.00	755
149669.00	740
150438.00	769
151225.00	787
151988.00	763
152738.00	750
153495.00	757
154227.00	732
154945.00	718
155689.00	744
156421.00	732
157145.00	724
157900.00	755
158661.00	761
159401.00	740
160139.00	738
160887.00	748
161613.00	726
162333.00	720
163077.00	744
163813.00	736
164535.00	722
165267.00	732
166005.00	738
166729.00	724
167434.00	705
168162.00	728
168886.00	724
169595.00	709
170319.00	724
171063.00	744
171785.00	722
172499.00	714
173233.00	734
173955.00	722
174665.00	710
175389.00	724
176123.00	734
176847.00	724
177581.00	734
178333.00	752
179065.00	732
179777.00	712
180501.00	724
181233.00	732
181955.00	722
182669.00	714
183399.00	730
184121.00	722
184839.00	718
185583.00	744
186319.00	736
187045.00	726
187789.00	744
188531.00	742
189259.00	728
189964.00	705
190651.00	687
191330.00	679
192009.00	679
192698.00	689
193387.00	689
194064.00	677
194728.00	664
195388.00	660
196042.00	654
196702.00	660
197368.00	666
198051.00	683
198748.00	697
199431.00	683
200118.00	687
200821.00	703
201514.00	693
202199.00	685
202902.00	703
203618.00	716
204332.00	714
205042.00	710
205776.00	734
206504.00	728
207220.00	716
207962.00	742
208704.00	742
209432.00	728
210162.00	730
210906.00	744
211632.00	726
212360.00	728
213113.00	753
213865.00	752
214599.00	734
215335.00	736
216081.00	746
216815.00	734
217537.00	722
218277.00	740
219021.00	744
219749.00	728
220477.00	728
221217.00	740
221943.00	726
222661.00	718
223397.00	736
224131.00	734
224855.00	724
225569.00	714
226307.00	738
227039.00	732
227763.00	724
228507.00	744
229282.00	775
230028.00	746
230770.00	742
231520.00	750
232246.00	726
232949.00	703
233667.00	718
234364.00	697
235032.00	668
235684.00	652
236334.00	650
236980.00	646
237620.00	640
238260.00	640
238924.00	664
239601.00	677
240267.00	666
240927.00	660
241593.00	666
242241.00	648
242866.00	625
243481.00	615
244098.00	617
244762.00	664
245410.00	648
246038.00	628
246668.00	630
247283.00	615
247900.00	617
248517.00	617
249151.00	634
249824.00	673
250515.00	691
251204.00	689
251914.00	710
252621.00	707
253330.00	709
254050.00	720
254747.00	697
255416.00	669
256058.00	642
256702.00	644
257356.00	654
258059.00	703
258762.00	703
259469.00	707
260197.00	728
260952.00	755
261666.00	714
262390.00	724
263114.00	724
263811.00	697
264512.00	701
265215.00	703
265927.00	712
266624.00	697
267323.00	699
268016.00	693
268726.00	710
269431.00	705
270143.00	712
270871.00	728
271595.00	724
272347.00	752
273120.00	773
273852.00	732
274592.00	740
275336.00	744
276052.00	716
276782.00	730
277502.00	720
278209.00	707
278910.00	701
279607.00	697
280306.00	699
281005.00	699
281710.00	705
282411.00	701
283118.00	707
283840.00	722
284560.00	720
285292.00	732
286040.00	748
286768.00	728
287506.00	738
288265.00	759
289034.00	769
289766.00	732
290512.00	746
291260.00	748
291976.00	716
292708.00	732
293452.00	744
294174.00	722
294908.00	734
295646.00	738
296388.00	742
297114.00	726
297848.00	734
298564.00	716
299267.00	703
299956.00	689
300631.00	675
301304.00	673
301962.00	658
302590.00	628
303224.00	634
303851.00	627
304499.00	648
305165.00	666
305848.00	683
306535.00	687
307245.00	710
307959.00	714
308693.00	734
309443.00	750
310224.00	781
310966.00	742
311723.00	757
312494.00	771
313249.00	755
313987.00	738
314740.00	753
315503.00	763
316241.00	738
316989.00	748
317731.00	742
318484.00	753
319224.00	740
319977.00	753
320746.00	769
321480.00	734
322239.00	759
322979.00	740
323686.00	707
324387.00	701
325088.00	701
325775.00	687
326472.00	697
327173.00	701
327870.00	697
328573.00	703
329280.00	707
329996.00	716
330724.00	728
331454.00	730
332188.00	734
332930.00	742
333658.00	728
334396.00	738
335132.00	736
335856.00	724
336582.00	726
337320.00	738
338072.00	752
338804.00	732
339540.00	736
340286.00	746
341024.00	738
341770.00	746
342523.00	753
343253.00	730
343979.00	726
344699.00	720
345415.00	716
346124.00	709
346834.00	710
347560.00	726
348280.00	720
349018.00	738
349775.00	757
350550.00	775
351296.00	746
352057.00	761
352838.00	781
353588.00	750
354345.00	757
355120.00	775
355936.00	816
356705.00	769
357484.00	779
358269.00	785
359024.00	755
359793.00	769
360576.00	783
361341.00	765
362116.00	775
362909.00	793
363684.00	775
364437.00	753
365194.00	757
365957.00	763
366697.00	740
367441.00	744
368191.00	750
368931.00	740
369684.00	753
370459.00	775
371205.00	746
371980.00	775
372788.00	808
373608.00	820
374401.00	793
375231.00	830
376074.00	843
376878.00	804
377686.00	808
378498.00	812
379300.00	802
380073.00	773
380854.00	781
381629.00	775
382402.00	773
383195.00	793
383978.00	783
384749.00	771
385526.00	777
386260.00	734
386986.00	726
387681.00	695
388358.00	677
389016.00	658
389680.00	664
390353.00	673
391077.00	724
391873.00	796
392636.00	763
393432.00	796
394238.00	806
395007.00	769
395762.00	755
396517.00	755
397280.00	763
398014.00	734
398758.00	744
399517.00	759
400257.00	740
401012.00	755
401781.00	769
402558.00	777
403311.00	753
404074.00	763
404859.00	785
405614.00	755
406385.00	771
407154.00	769
407913.00	759
408645.00	732
409379.00	734
410131.00	752
410863.00	732
411609.00	746
412366.00	757
413112.00	746
413867.00	755
414654.00	787
415402.00	748
416152.00	750
416911.00	759
417684.00	773
418430.00	746
419183.00	753
419956.00	773
420704.00	748
421448.00	744
422182.00	734
422898.00	716
423626.00	728
424348.00	722
425084.00	736
425818.00	734
426570.00	752
427345.00	775
428100.00	755
428877.00	777
429664.00	787
430437.00	773
431228.00	791
432044.00	816
432878.00	834
433651.00	773
434434.00	783
435225.00	791
435988.00	763
436755.00	767
437536.00	781
438289.00	753
439042.00	753
439805.00	763
440560.00	755
441296.00	736
442030.00	734
442762.00	732
443490.00	728
444232.00	742
444984.00	752
445749.00	765
446487.00	738
447246.00	759
447999.00	753
448733.00	734
449488.00	755
450263.00	775
451009.00	746
451772.00	763
452541.00	769
453306.00	765
454061.00	755
454816.00	755
455562.00	746
456292.00	730
457028.00	736
457774.00	746
458504.00	730
459244.00	740
459986.00	742
460720.00	734
461466.00	746
462210.00	744
462963.00	753
463707.00	744
464449.00	742
465189.00	740
465921.00	732
466667.00	746
467415.00	748
468143.00	728
468891.00	748
469656.00	765
470421.00	765
471190.00	769
471975.00	785
472766.00	791
473519.00	753
474278.00	759
475028.00	750
475760.00	732
476496.00	736
477230.00	734
477970.00	740
478706.00	736
479456.00	750
480229.00	773
480990.00	761
481773.00	783
482562.00	789
483364.00	802
484155.00	791
484983.00	828
485813.00	830
486586.00	773
487359.00	773
488140.00	781
488919.00	779
489676.00	757
490441.00	765
491212.00	771
491964.00	752
492723.00	759
493480.00	757
494220.00	740
494962.00	742
495712.00	750
496446.00	734
497199.00	753
497958.00	759
498725.00	767
499475.00	750
500240.00	765
501023.00	783
501784.00	761
502545.00	761
503310.00	765
504052.00	742
504798.00	746
505544.00	746
506260.00	716
507004.00	744
507748.00	744
508503.00	755
509256.00	753
510023.00	767
510812.00	789
511564.00	752
512325.00	761
513086.00	761
513845.00	759
514604.00	759
515365.00	761
516144.00	779
516890.00	746
517651.00	761
518416.00	765
519156.00	740
519900.00	744
520642.00	742
521395.00	753
522135.00	740
522900.00	765
523681.00	781
524427.00	746
525202.00	775
525977.00	775
526740.00	763
527492.00	752
528245.00	753
529000.00	755
529744.00	744
530490.00	746
531251.00	761
531987.00	736
532735.00	748
533481.00	746
534223.00	742
534965.00	742
535711.00	746
536463.00	752
537199.00	736
537949.00	750
538699.00	750
539431.00	732
540175.00	744
540909.00	734
541643.00	734
542383.00	740
543140.00	757
543901.00	761
544660.00	759
545445.00	785
546243.00	798
547030.00	787
547782.00	752
548545.00	763
549304.00	759
550038.00	734
550780.00	742
551530.00	750
552282.00	752
553026.00	744
553762.00	736
554502.00	740
555242.00	740
556003.00	761
556774.00	771
557535.00	761
558312.00	777
559116.00	804
559918.00	802
560687.00	769
561472.00	785
562266.00	794
563033.00	767
563788.00	755
564559.00	771
565361.00	802
566140.00	779
566925.00	785
567721.00	796
568486.00	765
569259.00	773
570046.00	787
570872.00	826
571655.00	783
572485.00	830
573334.00	849
574177.00	843
574973.00	796
575787.00	814
576599.00	812
577374.00	775
578135.00	761
578879.00	744
579634.00	755
580376.00	742
581118.00	742
581868.00	750
582620.00	752
583393.00	773
584182.00	789
584953.00	771
585710.00	757
586463.00	753
587175.00	712
587913.00	738
588678.00	765
589467.00	789
590238.00	771
591015.00	777
591802.00	787
592604.00	802
593359.00	755
594120.00	761
594879.00	759
595623.00	744
596369.00	746
597115.00	746
597843.00	728
598571.00	728
599301.00	730
600043.00	742
600765.00	722
601497.00	732
602239.00	742
603006.00	767
603752.00	746
604505.00	753
605262.00	757
605998.00	736
606750.00	752
607505.00	755
608257.00	752
609003.00	746
609756.00	753
610525.00	769
611273.00	748
612019.00	746
612792.00	773
613581.00	789
614346.00	765
615101.00	755
615858.00	757
616633.00	775
617377.00	744
618121.00	744
618859.00	738
619583.00	724
620317.00	734
621049.00	732
621769.00	720
622507.00	738
623259.00	752
624014.00	755
624789.00	775
625570.00	781
626323.00	753
627076.00	753
627814.00	738
628548.00	734
629270.00	722
629990.00	720
630704.00	714
631414.00	710
632132.00	718
632854.00	722
633602.00	748
634359.00	757
635128.00	769
635942.00	814
636809.00	867
637602.00	793
638410.00	808
639236.00	826
640005.00	769
640760.00	755
641523.00	763
642300.00	777
643059.00	759
643824.00	765
644595.00	771
645368.00	773
646118.00	750
646868.00	750
647621.00	753
648349.00	728
649079.00	730
649791.00	712
650503.00	712
651231.00	728
651951.00	720
652683.00	732
653436.00	753
654223.00	787
655049.00	826
655838.00	789
656632.00	794
657440.00	808
658250.00	810
659027.00	777
659794.00	767
660581.00	787
661375.00	794
662134.00	759
662907.00	773
663707.00	800
664460.00	753
665227.00	767
666002.00	775
666752.00	750
667505.00	753
668258.00	753
669017.00	759
669755.00	738
670479.00	724
671188.00	709
671883.00	695
672568.00	685
673247.00	679
673911.00	664
674555.00	644
675191.00	636
675810.00	619
676554.00	744
677263.00	709
677964.00	701
678641.00	677
679326.00	685
679995.00	669
680659.00	664
681301.00	642
681929.00	628
682556.00	627
683190.00	634
683850.00	660
684557.00	707
685260.00	703
685957.00	697
686648.00	691
687349.00	701
688083.00	734
688793.00	710
689507.00	714
690219.00	712
690949.00	730
691704.00	755
692414.00	710
693140.00	726
693880.00	740
694657.00	777
695410.00	753
696156.00	746
696921.00	765
697702.00	781
698473.00	771
699221.00	748
699963.00	742
700716.00	753
701495.00	779
702245.00	750
702997.00	752
703778.00	781
704582.00	804
705359.00	777
706130.00	771
706923.00	793
707725.00	802
708486.00	761
709249.00	763
710012.00	763
710793.00	781
711552.00	759
712327.00	775
713114.00	787
713879.00	765
714638.00	759
715417.00	779
716190.00	773
716936.00	746
717689.00	753
718444.00	755
719203.00	759
719960.00	757
720719.00	759
721482.00	763
722210.00	728
722944.00	734
723672.00	728
724416.00	744
725158.00	742
725919.00	761
726708.00	789
727479.00	771
728273.00	794
729093.00	820
729886.00	793
730659.00	773
731446.00	787
732233.00	787
732985.00	752
733737.00	752
734487.00	750
735254.00	767
736007.00	753
736780.00	773
737576.00	796
738374.00	798
739135.00	761
739914.00	779
740699.00	785
741458.00	759
742210.00	752
742965.00	755
743738.00	773
744484.00	746
745237.00	753
745996.00	759
746749.00	753
747493.00	744
748250.00	757
749025.00	775
749788.00	763
750567.00	779
751367.00	800
752169.00	802
752930.00	761
753701.00	771
754478.00	777
755233.00	755
755992.00	759
756763.00	771
757554.00	791
758335.00	781
759110.00	775
759906.00	796
760749.00	843
761538.00	789
762325.00	787
763110.00	785
763889.00	779
764641.00	752
765410.00	769
766177.00	767
766940.00	763
767707.00	767
768494.00	787
769298.00	804
770081.00	783
770885.00	804
771691.00	806
772484.00	793
773255.00	771
774046.00	791
774848.00	802
775627.00	779
776400.00	773
777179.00	779
777950.00	771
778717.00	767
779451.00	734
780177.00	726
780895.00	718
781623.00	728
782347.00	724
783071.00	724
783813.00	742
784566.00	753
785351.00	785
786106.00	755
786902.00	796
787706.00	804
788485.00	779
789254.00	769
790043.00	789
790851.00	808
791638.00	787
792409.00	771
793188.00	779
793965.00	777
794713.00	748
795470.00	757
796233.00	763
797008.00	775
797758.00	750
798519.00	761
799286.00	767
800036.00	750
800788.00	752
801545.00	757
802293.00	748
803017.00	724
803749.00	732
804483.00	734
805221.00	738
805965.00	744
806709.00	744
807464.00	755
808217.00	753
808970.00	753
809745.00	775
810538.00	793
811290.00	752
812038.00	748
812782.00	744
813530.00	748
814266.00	736
815008.00	742
815756.00	748
816500.00	744
817242.00	742
817992.00	750
818755.00	763
819489.00	734
820227.00	738
820977.00	750
821738.00	761
822472.00	734
823210.00	738
823944.00	734
824666.00	722
825392.00	726
826116.00	724
826864.00	748
827614.00	750
828364.00	750
829121.00	757
829900.00	779
830657.00	757
831409.00	752
832159.00	750
832912.00	753
833654.00	742
834384.00	730
835126.00	742
835860.00	734
836600.00	740
837344.00	744
838119.00	775
838882.00	763
839671.00	789
840473.00	802
841277.00	804
842032.00	755
842795.00	763
843580.00	785
844376.00	796
845163.00	787
845961.00	798
846787.00	826
847599.00	812
848374.00	775
849155.00	781
849936.00	781
850688.00	752
851438.00	750
852182.00	744
852945.00	763
853685.00	740
854421.00	736
855163.00	742
855915.00	752
856663.00	748
857415.00	752
858198.00	783
858979.00	781
859754.00	775
860539.00	785
861351.00	812
862134.00	783
862913.00	779
863711.00	798
864523.00	812
865284.00	761
866039.00	755
866789.00	750
867539.00	750
868281.00	742
869038.00	757
869819.00	781
870598.00	779
871363.00	765
872148.00	785
872929.00	781
873690.00	761
874455.00	765
875234.00	779
875999.00	765
876760.00	761
877517.00	757
878278.00	761
879033.00	755
879790.00	757
880555.00	765
881336.00	781
882109.00	773
882884.00	775
883673.00	789
884477.00	804
885250.00	773
886027.00	777
886816.00	789
887599.00	783
888362.00	763
889135.00	773
889914.00	779
890683.00	769
891446.00	763
892221.00	775
893025.00	804
893814.00	789
894593.00	779
895376.00	783
896157.00	781
896912.00	755
897671.00	759
898440.00	769
899219.00	779
899982.00	763
900755.00	773
901542.00	787
902346.00	804
903115.00	769
903906.00	791
904697.00	791
905470.00	773
906210.00	740
906934.00	724
907641.00	707
908342.00	701
909031.00	689
909697.00	666
910365.00	668
911042.00	677
911725.00	683
912422.00	697
913127.00	705
913839.00	712
914555.00	716
915271.00	716
916003.00	732
916758.00	755
917519.00	761
918249.00	730
918975.00	726
919705.00	730
920464.00	759
921202.00	738
921940.00	738
922678.00	738
923430.00	752
924156.00	726
924876.00	720
925606.00	730
926338.00	732
927080.00	742
927824.00	744
928576.00	752
929306.00	730
930050.00	744
930778.00	728
931492.00	714
932222.00	730
932962.00	740
933714.00	752
934464.00	750
935216.00	752
935997.00	781
936803.00	806
937570.00	767
938351.00	781
939126.00	775
939872.00	746
940620.00	748
941362.00	742
942102.00	740
942846.00	744
943592.00	746
944353.00	761
945105.00	752
945880.00	775
946671.00	791
947477.00	806
948250.00	773
949027.00	777
949810.00	783
950571.00	761
951323.00	752
952069.00	746
952822.00	753
953564.00	742
954312.00	748
955058.00	746
955808.00	750
956556.00	748
957306.00	750
958065.00	759
958848.00	783
959605.00	757
960376.00	771
961149.00	773
961924.00	775
962681.00	757
963444.00	763
964201.00	757
964962.00	761
965717.00	755
966508.00	791
967318.00	810
968089.00	771
968893.00	804
969727.00	834
970562.00	835
971355.00	793
972173.00	818
972993.00	820
973778.00	785
974559.00	781
975357.00	798
976161.00	804
976926.00	765
977693.00	767
978458.00	765
979210.00	752
979958.00	748
980700.00	742
981446.00	746
982182.00	736
982910.00	728
983619.00	709
984324.00	705
985031.00	707
985745.00	714
986444.00	699
987149.00	705
987865.00	716
988575.00	710
989303.00	728
990047.00	744
990802.00	755
991561.00	759
992340.00	779
993086.00	746
993836.00	750
994589.00	753
995362.00	773
996115.00	753
996853.00	738
997581.00	728
998336.00	755
999093.00	757
999870.00	777
1000688.00	818
1001475.00	787
1002246.00	771
1003023.00	777
1003796.00	773
1004538.00	742
1005282.00	744
1006020.00	738
1006787.00	767
1007542.00	755
1008309.00	767
1009080.00	771
1009863.00	783
1010609.00	746
1011355.00	746
1012097.00	742
1012852.00	755
1013598.00	746
1014357.00	759
1015114.00	757
1015860.00	746
1016596.00	736
1017324.00	728
1018064.00	740
1018794.00	730
1019524.00	730
1020254.00	730
1020963.00	709
1021666.00	703
1022357.00	691
1023034.00	677
1023700.00	666
1024344.00	644
1024980.00	636
1025614.00	634
1026258.00	644
1026894.00	636
1027536.00	642
1028184.00	648
1028834.00	650
1029482.00	648
1030138.00	656
1030792.00	654
1031452.00	660
1032104.00	652
1032773.00	669
1033454.00	681
1034147.00	693
1034850.00	703
1035580.00	730
1036300.00	720
1037046.00	746
1037782.00	736
1038539.00	757
1039265.00	726
1039981.00	716
1040684.00	703
1041412.00	728
1042136.00	724
1042852.00	716
1043582.00	730
1044339.00	757
1045079.00	740
1045821.00	742
1046569.00	748
1047299.00	730
1048031.00	732
1048745.00	714
1049469.00	724
1050176.00	707
1050869.00	693
1051562.00	693
1052257.00	695
1052958.00	701
1053653.00	695
1054356.00	703
1055066.00	710
1055776.00	710
1056481.00	705
1057203.00	722
1057913.00	710
1058623.00	710
1059324.00	701
1060034.00	710
1060733.00	699
1061432.00	699
1062103.00	671
1062755.00	652
1063403.00	648
1064063.00	660
1064746.00	683
1065419.00	673
1066114.00	695
1066840.00	726
1067554.00	714
1068263.00	709
1068977.00	714
1069713.00	736
1070431.00	718
1071145.00	714
1071857.00	712
1072587.00	730
1073325.00	738
1074049.00	724
1074773.00	724
1075491.00	718
1076217.00	726
1076935.00	718
1077653.00	718
1078369.00	716
1079091.00	722
1079811.00	720
1080523.00	712
1081247.00	724
1081975.00	728
1082701.00	726
1083423.00	722
1084157.00	734
1084877.00	720
1085601.00	724
1086315.00	714
1087061.00	746
1087791.00	730
1088537.00	746
1089283.00	746
1090042.00	759
1090774.00	732
1091510.00	736
1092252.00	742
1092976.00	724
1093704.00	728
1094428.00	724
1095174.00	746
1095900.00	726
1096644.00	744
1097392.00	748
1098163.00	771
1098916.00	753
1099673.00	757
1100436.00	763
1101172.00	736
1101916.00	744
1102654.00	738
1103396.00	742
1104138.00	742
1104893.00	755
1105662.00	769
1106415.00	753
1107161.00	746
1107895.00	734
1108635.00	740
1109379.00	744
1110107.00	728
1110843.00	736
1111575.00	732
1112325.00	750
1113049.00	724
1113767.00	718
1114497.00	730
1115192.00	695
1115891.00	699
1116588.00	697
1117300.00	712
1118001.00	701
1118713.00	712
1119443.00	730
1120191.00	748
1120960.00	769
1121725.00	765
1122490.00	765
1123259.00	769
1123985.00	726
1124697.00	712
1125378.00	681
1126040.00	662
1126688.00	648
1127313.00	625
1127922.00	609
1128519.00	597
1129110.00	591
1129694.00	584
1130264.00	570
1130926.00	662
1131584.00	658
1132240.00	656
1132888.00	648
1133513.00	625
1134141.00	628
1134777.00	636
1135421.00	644
1136065.00	644
1136723.00	658
1137394.00	671
1138067.00	673
1138736.00	669
1139402.00	666
1140054.00	652
1140700.00	646
1141334.00	634
1141951.00	617
1142554.00	603
1143141.00	587
1143732.00	591
1144370.00	638
1145088.00	718
1145830.00	742
1146619.00	789
1147380.00	761
1148163.00	783
1148969.00	806
1149721.00	752
1150461.00	740
1151150.00	689
1151810.00	660
1152470.00	660
1153141.00	671
1153828.00	687
1154578.00	750
1155324.00	746
1156064.00	740
1156831.00	767
1157592.00	761
1158326.00	734
1159029.00	703
1159724.00	695
1160448.00	724
1161244.00	796
1162081.00	837
1162924.00	843
1163730.00	806
1164485.00	755
1165221.00	736
1165945.00	724
1166648.00	703
1167335.00	687
1167999.00	664
1168641.00	642
1169277.00	636
1169911.00	634
1170543.00	632
1171189.00	646
1171829.00	640
1172461.00	632
1173107.00	646
1173747.00	640
1174395.00	648
1175061.00	666
1175727.00	666
1176389.00	662
1177062.00	673
1177737.00	675
1178424.00	687
1179113.00	689
1179816.00	703
1180526.00	710
1181223.00	697
1181912.00	689
1182589.00	677
1183264.00	675
1183920.00	656
1184578.00	658
1185247.00	669
1185907.00	660
1186569.00	662
1187238.00	669
1187906.00	668
1188587.00	681
1189262.00	675
1189935.00	673
1190583.00	648
1191233.00	650
1191895.00	662
1192586.00	691
1193267.00	681
1193962.00	695
1194669.00	707
1195374.00	705
1196090.00	716
1196802.00	712
1197514.00	712
1198219.00	705
1198926.00	707
1199627.00	701
1200326.00	699
1201029.00	703
1201724.00	695
1202429.00	705
1203132.00	703
1203835.00	703
1204530.00	695
1205225.00	695
1205924.00	699
1206623.00	699
1207337.00	714
1208051.00	714
1208777.00	726
1209493.00	716
1210215.00	722
1210939.00	724
1211648.00	709
1212368.00	720
1213084.00	716
1213806.00	722
1214520.00	714
1215234.00	714
1215958.00	724
1216686.00	728
1217426.00	740
1218158.00	732
1218882.00	724
1219596.00	714
1220308.00	712
1221026.00	718
1221774.00	748
1222518.00	744
1223268.00	750
1224012.00	744
1224732.00	720
1225460.00	728
1226178.00	718
1226896.00	718
1227622.00	726
1228344.00	722
1229080.00	736
1229806.00	726
1230538.00	732
1231260.00	722
1231982.00	722
1232708.00	726
1233438.00	730
1234164.00	726
1234874.00	710
1235583.00	709
1236286.00	703
1237006.00	720
1237716.00	710
1238425.00	709
1239134.00	709
1239844.00	710
1240556.00	712
1241268.00	712
1241988.00	720
1242700.00	712
1243418.00	718
1244132.00	714
1244850.00	718
1245574.00	724
1246300.00	726
1247034.00	734
1247791.00	757
1248548.00	757
1249294.00	746
1250042.00	748
1250790.00	748
1251516.00	726
1252242.00	726
1252960.00	718
1253696.00	736
1254418.00	722
1255150.00	732
1255898.00	748
1256661.00	763
1257426.00	765
1258207.00	781
1259019.00	812
1259784.00	765
1260543.00	759
1261293.00	750
1262035.00	742
1262755.00	720
1263467.00	712
1264189.00	722
1264907.00	718
1265647.00	740
1266373.00	726
1267113.00	740
1267843.00	730
1268596.00	753
1269349.00	753
1270081.00	732
1270825.00	744
1271573.00	748
1272321.00	748
1273033.00	712
1273759.00	726
1274479.00	720
1275180.00	701
1275892.00	712
1276602.00	710
1277328.00	726
1278048.00	720
1278764.00	716
1279502.00	738
1280259.00	757
1280999.00	740
1281751.00	752
1282508.00	757
1283265.00	757
1284017.00	752
1284763.00	746
1285518.00	755
1286238.00	720
1286968.00	730
1287678.00	710
1288388.00	710
1289100.00	712
1289812.00	712
1290524.00	712
1291256.00	732
1291978.00	722
1292700.00	722
1293420.00	720
1294136.00	716
1294850.00	714
1295568.00	718
1296296.00	728
1297022.00	726
1297752.00	730
1298480.00	728
1299208.00	728
1299956.00	748
1300696.00	740
1301448.00	752
1302196.00	748
1302926.00	730
1303670.00	744
1304416.00	746
1305183.00	767
1305919.00	736
1306665.00	746
1307413.00	748
1308147.00	734
1308885.00	738
1309627.00	742
1310361.00	734
1311101.00	740
1311815.00	714
1312533.00	718
1313267.00	734
1314013.00	746
1314770.00	757
1315490.00	720
1316224.00	734
1316940.00	716
1317623.00	683
1318355.00	732
1319042.00	687
1319723.00	681
1320369.00	646
1320999.00	630
1321610.00	611
1322213.00	603
1322814.00	601
1323439.00	625
1324069.00	630
1324701.00	632
1325333.00	632
1326004.00	671
1326730.00	726
1327440.00	710
1328229.00	789
1329082.00	853
1329916.00	834
1330695.00	779
1331509.00	814
1332325.00	816
1333077.00	752
1333829.00	752
1334579.00	750
1335303.00	724
1336035.00	732
1336763.00	728
1337499.00	736
1338233.00	734
1338986.00	753
1339749.00	763
1340485.00	736
1341242.00	757
1341994.00	752
1342722.00	728
1343462.00	740
1344198.00	736
1344940.00	742
1345672.00	732
1346412.00	740
1347146.00	734
1347886.00	740
1348626.00	740
1349381.00	755
1350148.00	767
1350896.00	748
1351653.00	757
1352403.00	750
1353137.00	734
1353873.00	736
1354615.00	742
1355351.00	736
1356083.00	732
1356833.00	750
1357590.00	757
1358357.00	767
1359122.00	765
1359893.00	771
1360678.00	785
1361426.00	748
1362181.00	755
1362909.00	728
1363621.00	712
1364326.00	705
1365033.00	707
1365763.00	730
1366497.00	734
1367219.00	722
1367967.00	748
1368701.00	734
1369435.00	734
1370171.00	736
1370917.00	746
1371661.00	744
1372411.00	750
1373145.00	734
1373871.00	726
1374603.00	732
1375329.00	726
1376071.00	742
1376787.00	716
1377515.00	728
1378231.00	716
1378947.00	716
1379646.00	699
1380349.00	703
1381022.00	673
1381699.00	677
1382376.00	677
1383044.00	668
1383712.00	668
1384368.00	656
1385018.00	650
1385646.00	628
1386269.00	623
1386884.00	615
1387507.00	623
1388157.00	650
1388791.00	634
1389439.00	648
1390120.00	681
1390793.00	673
1391488.00	695
1392249.00	761
1393061.00	812
1393855.00	794
1394667.00	812
1395499.00	832
1396268.00	769
1397051.00	783
1397847.00	796
1398624.00	777
1399370.00	746
1400112.00	742
1400850.00	738
1401592.00	742
1402336.00	744
1403088.00	752
1403840.00	752
1404568.00	728
1405292.00	724
1406008.00	716
1406738.00	730
1407458.00	720
1408174.00	716
1408906.00	732
1409634.00	728
1410356.00	722
1411074.00	718
1411800.00	726
1412509.00	709
1413210.00	701
1413901.00	691
1414604.00	703
1415297.00	693
1415992.00	695
1416683.00	691
1417413.00	730
1418141.00	728
1418867.00	726
1419599.00	732
1420354.00	755
1421092.00	738
1421816.00	724
1422548.00	732
1423270.00	722
1423992.00	722
1424697.00	705
1425417.00	720
1426133.00	716
1426843.00	710
1427552.00	709
1428272.00	720
1429002.00	730
1429716.00	714
1430442.00	726
1431158.00	716
1431868.00	710
1432571.00	703
1433291.00	720
1434013.00	722
1434729.00	716
1435447.00	718
1436171.00	724
1436891.00	720
1437594.00	703
1438314.00	720
1439032.00	718
1439748.00	716
1440462.00	714
1441196.00	734
1441918.00	722
1442648.00	730
1443368.00	720
1444082.00	714
1444808.00	726
1445518.00	710
1446240.00	722
1446945.00	705
1447655.00	710
1448358.00	703
1449070.00	712
1449782.00	712
1450498.00	716
1451220.00	722
1451938.00	718
1452666.00	728
1453384.00	718
1454094.00	710
1454804.00	710
1455518.00	714
1456227.00	709
1456941.00	714
1457655.00	714
1458362.00	707
1459059.00	697
1459762.00	703
1460457.00	695
1461146.00	689
1461833.00	687
1462534.00	701
1463244.00	710
1463962.00	718
1464686.00	724
1465400.00	714
1466126.00	726
1466858.00	732
1467586.00	728
1468300.00	714
1469012.00	712
1469719.00	707
1470429.00	710
1471128.00	699
1471833.00	705
1472532.00	699
1473229.00	697
1473930.00	701
1474642.00	712
1475349.00	707
1476099.00	750
1476858.00	759
1477639.00	781
1478441.00	802
1479235.00	794
1480016.00	781
1480824.00	808
1481618.00	794
1482370.00	752
1483116.00	746
1483848.00	732
1484566.00	718
1485300.00	734
1486016.00	716
1486721.00	705
1487430.00	709
1488152.00	722
1488861.00	709
1489591.00	730
1490313.00	722
1491037.00	724
1491767.00	730
1492534.00	767
1493262.00	728
1493998.00	736
1494730.00	732
1495456.00	726
1496190.00	734
1496924.00	734
1497676.00	752
1498400.00	724
1499128.00	728
1499835.00	707
1500549.00	714
1501248.00	699
1501939.00	691
1502638.00	699
1503350.00	712
1504074.00	724
1504786.00	712
1505520.00	734
1506250.00	730
1506980.00	730
1507708.00	728
1508450.00	742
1509188.00	738
1509920.00	732
1510644.00	724
1511370.00	726
1512084.00	714
1512804.00	720
1513540.00	736
1514252.00	712
1514966.00	714
1515671.00	705
1516387.00	716
1517099.00	712
1517800.00	701
1518487.00	687
1519207.00	720
1519902.00	695
1520591.00	689
1521288.00	697
1522018.00	730
1522728.00	710
1523438.00	710
1524145.00	707
1524873.00	728
1525585.00	712
1526286.00	701
1526995.00	709
1527721.00	726
1528441.00	720
1529144.00	703
1529856.00	712
1530568.00	712
1531269.00	701
1531956.00	687
1532661.00	705
1533381.00	720
1534107.00	726
1534829.00	722
1535584.00	755
1536336.00	752
1537086.00	750
1537841.00	755
1538600.00	759
1539326.00	726
1540031.00	705
1540716.00	685
1541411.00	695
1542112.00	701
1542807.00	695
1543533.00	726
1544277.00	744
1545019.00	742
1545763.00	744
1546507.00	744
1547247.00	740
1547975.00	728
1548713.00	738
1549455.00	742
1550189.00	734
1550931.00	742
1551706.00	775
1552467.00	761
1553226.00	759
1553999.00	773
1554745.00	746
1555471.00	726
1556183.00	712
1556901.00	718
1557625.00	724
1558343.00	718
1559050.00	707
1559778.00	728
1560498.00	720
1561207.00	709
1561914.00	707
1562624.00	710
1563334.00	710
1564029.00	695
1564736.00	707
1565439.00	703
1566142.00	703
1566856.00	714
1567588.00	732
1568322.00	734
1569064.00	742
1569788.00	724
1570524.00	736
1571246.00	722
1571964.00	718
1572674.00	710
1573392.00	718
1574110.00	718
1574815.00	705
1575520.00	705
1576221.00	701
1576916.00	695
1577591.00	675
1578276.00	685
1578969.00	693
1579652.00	683
1580347.00	695
1581046.00	699
1581743.00	697
1582465.00	722
1583189.00	724
1583925.00	736
1584657.00	732
1585401.00	744
1586121.00	720
1586845.00	724
1587554.00	709
1588266.00	712
1588971.00	705
1589668.00	697
1590380.00	712
1591106.00	726
1591832.00	726
1592554.00	722
1593298.00	744
1594026.00	728
1594758.00	732
1595484.00	726
1596218.00	734
1596950.00	732
1597690.00	740
1598424.00	734
1599144.00	720
1599874.00	730
1600586.00	712
1601328.00	742
1602068.00	740
1602800.00	732
1603530.00	730
1604280.00	750
1605014.00	734
1605740.00	726
1606495.00	755
1607264.00	769
1608008.00	744
1608742.00	734
1609480.00	738
1610212.00	732
1610946.00	734
1611658.00	712
1612363.00	705
1613075.00	712
1613795.00	720
1614511.00	716
1615257.00	746
1616003.00	746
1616749.00	746
1617504.00	755
1618257.00	753
1619012.00	755
1619762.00	750
1620531.00	769
1621288.00	757
1622032.00	744
1622764.00	732
1623504.00	740
1624254.00	750
1624986.00	732
1625734.00	748
1626497.00	763
1627256.00	759
1628015.00	759
1628786.00	771
1629543.00	757
1630304.00	761
1631075.00	771
1631838.00	763
1632590.00	752
1633355.00	765
1634110.00	755
1634846.00	736
1635580.00	734
1636312.00	732
1637038.00	726
1637766.00	728
1638492.00	726
1639230.00	738
1639978.00	748
1640718.00	740
1641458.00	740
1642198.00	740
1642928.00	730
1643631.00	703
1644347.00	716
1645056.00	709
1645755.00	699
1646456.00	701
1647200.00	744
1647930.00	730
1648650.00	720
1649370.00	720
1650116.00	746
1650852.00	736
1651572.00	720
1652296.00	724
1653032.00	736
1653762.00	730
1654490.00	728
1655224.00	734
1655958.00	734
1656686.00	728
1657412.00	726
1658189.00	777
1659011.00	822
1659774.00	763
1660545.00	771
1661283.00	738
1662003.00	720
1662727.00	724
1663439.00	712
1664144.00	705
1664851.00	707
1665544.00	693
1666223.00	679
1666896.00	673
1667552.00	656
1668190.00	638
1668818.00	628
1669464.00	646
1670143.00	679
1670846.00	703
1671551.00	705
1672291.00	740
1673068.00	777
1673829.00	761
1674625.00	796
1675443.00	818
1676232.00	789
1676982.00	750
1677718.00	736
1678436.00	718
1679141.00	705
1679848.00	707
1680541.00	693
1681240.00	699
1681950.00	710
1682664.00	714
1683374.00	710
1684122.00	748
1684868.00	746
1685606.00	738
1686338.00	732
1687090.00	752
1687842.00	752
1688574.00	732
1689296.00	722
1690026.00	730
1690764.00	738
1691492.00	728
1692222.00	730
1692985.00	763
1693748.00	763
1694505.00	757
1695247.00	742
1695993.00	746
1696731.00	738
1697463.00	732
1698183.00	720
1698923.00	740
1699657.00	734
1700391.00	734
1701121.00	730
1701869.00	748
1702605.00	736
1703331.00	726
1704047.00	716
1704763.00	716
1705470.00	707
1706157.00	687
1706873.00	716
1707628.00	755
1708372.00	744
1709141.00	769
1709935.00	794
1710745.00	810
1711520.00	775
1712307.00	787
1713064.00	757
1713798.00	734
1714518.00	720
1715232.00	714
1715954.00	722
1716678.00	724
1717398.00	720
1718108.00	710
1718852.00	744
1719602.00	750
1720352.00	750
1721104.00	752
1721879.00	775
1722636.00	757
1723388.00	752
1724122.00	734
1724881.00	759
1725627.00	746
1726361.00	734
1727081.00	720
1727819.00	738
1728561.00	742
1729295.00	734
1730015.00	720
1730759.00	744
1731495.00	736
1732219.00	724
1732929.00	710
1733651.00	722
1734352.00	701
1735033.00	681
1735679.00	646
1736321.00	642
1736973.00	652
1737666.00	693
1738361.00	695
1739052.00	691
1739749.00	697
1740475.00	726
1741185.00	710
1741890.00	705
1742587.00	697
1743292.00	705
1743993.00	701
1744680.00	687
1745355.00	675
1746036.00	681
1746735.00	699
1747434.00	699
1748121.00	687
1748824.00	703
1749550.00	726
1750270.00	720
1750980.00	710
1751690.00	710
1752416.00	726
1753175.00	759
1753913.00	738
1754635.00	722
1755359.00	724
1756107.00	748
1756855.00	748
1757597.00	742
1758335.00	738
1759087.00	752
1759837.00	750
1760569.00	732
1761293.00	724
1762009.00	716
1762729.00	720
1763432.00	703
1764121.00	689
1764816.00	695
1765523.00	707
1766230.00	707
1766923.00	693
1767614.00	691
1768334.00	720
1769054.00	720
1769766.00	712
1770469.00	703
1771185.00	716
1771890.00	705
1772583.00	693
1773272.00	689
1773988.00	716
1774700.00	712
1775397.00	697
1776090.00	693
1776808.00	718
1777518.00	710
1778221.00	703
1778916.00	695
1779632.00	716
1780337.00	705
1781032.00	695
1781727.00	695
1782437.00	710
1783134.00	697
1783811.00	677
1784486.00	675
1785181.00	695
1785862.00	681
1786528.00	666
1787184.00	656
1787869.00	685
1788552.00	683
1789245.00	693
1789942.00	697
1790674.00	732
1791390.00	716
1792102.00	712
1792820.00	718
1793558.00	738
1794278.00	720
1795000.00	722
1795718.00	718
1796442.00	724
1797156.00	714
1797857.00	701
1798564.00	707
1799284.00	720
1800004.00	720
1800713.00	709
1801435.00	722
1802161.00	726
1802875.00	714
1803574.00	699
1804281.00	707
1804988.00	707
1805679.00	691
1806372.00	693
1807077.00	705
1807778.00	701
1808461.00	683
1809154.00	693
1809859.00	705
1810568.00	709
1811263.00	695
1811975.00	712
1812689.00	714
1813403.00	714
1814104.00	701
1814828.00	724
1815570.00	742
1816298.00	728
1817016.00	718
1817730.00	714
1818435.00	705
1819145.00	710
1819842.00	697
1820558.00	716
1821276.00	718
1821992.00	716
1822704.00	712
1823448.00	744
1824205.00	757
1824941.00	736
1825663.00	722
1826383.00	720
1827092.00	709
1827791.00	699
1828472.00	681
1829169.00	697
1829870.00	701
1830569.00	699
1831254.00	685
1831966.00	712
1832680.00	714
1833383.00	703
1834082.00	699
1834806.00	724
1835520.00	714
1836219.00	699
1836918.00	699
1837634.00	716
1838339.00	705
1839040.00	701
1839731.00	691
1840445.00	714
1841154.00	709
1841851.00	697
1842554.00	703
1843292.00	738
1844014.00	722
1844732.00	718
1845446.00	714
1846180.00	734
1846892.00	712
1847595.00	703
1848286.00	691
1849004.00	718
1849713.00	709
1850410.00	697
1851109.00	699
1851818.00	709
1852532.00	714
1853229.00	697
1853930.00	701
1854625.00	695
1855318.00	693
1856001.00	683
1856723.00	722
1857439.00	716
1858151.00	712
1858861.00	710
1859587.00	726
1860307.00	720
1861008.00	701
1861703.00	695
1862412.00	709
1863119.00	707
1863810.00	691
1864499.00	689
1865196.00	697
1865897.00	701
1866594.00	697
1867314.00	720
1868040.00	726
1868756.00	716
1869476.00	720
1870216.00	740
1870954.00	738
1871666.00	712
1872367.00	701
1873077.00	710
1873776.00	699
1874463.00	687
1875148.00	685
1875860.00	712
1876569.00	709
1877272.00	703
1877967.00	695
1878687.00	720
1879409.00	722
1880116.00	707
1880817.00	701
1881520.00	703
1882223.00	703
1882904.00	681
1883575.00	671
1884239.00	664
1884885.00	646
1885512.00	627
1886150.00	638
1886808.00	658
1887487.00	679
1888170.00	683
1888871.00	701
1889578.00	707
1890275.00	697
1890982.00	707
1891689.00	707
1892403.00	714
1893106.00	703
1893791.00	685
1894460.00	669
1895124.00	664
1895795.00	671
1896472.00	677
1897140.00	668
1897825.00	685
1898535.00	710
1899245.00	710
1899961.00	716
1900673.00	712
1901391.00	718
1902092.00	701
1902791.00	699
1903486.00	695
1904187.00	701
1904872.00	685
1905553.00	681
1906230.00	677
1906917.00	687
1907594.00	677
1908265.00	671
1908915.00	650
1909561.00	646
1910197.00	636
1910822.00	625
1911449.00	627
1912081.00	632
1912715.00	634
1913365.00	650
1914040.00	675
1914709.00	669
1915388.00	679
1916059.00	671
1916748.00	689
1917447.00	699
1918132.00	685
1918807.00	675
1919475.00	668
1920154.00	679
1920859.00	705
1921554.00	695
1922237.00	683
1922914.00	677
1923601.00	687
1924286.00	685
1924948.00	662
1925621.00	673
1926316.00	695
1927013.00	697
1927700.00	687
1928377.00	677
1929064.00	687
1929761.00	697
1930450.00	689
1931151.00	701
1931846.00	695
1932555.00	709
1933262.00	707
1933963.00	701
1934668.00	705
1935375.00	707
1936085.00	710
1936782.00	697
1937477.00	695
1938162.00	685
1938849.00	687
1939536.00	687
1940205.00	669
1940874.00	669
1941553.00	679
1942230.00	677
1942909.00	679
1943575.00	666
1944252.00	677
1944945.00	693
1945624.00	679
1946286.00	662
1946944.00	658
1947602.00	658
1948285.00	683
1948962.00	677
1949631.00	669
1950269.00	638
1950917.00	648
1951540.00	623
1952145.00	605
1952744.00	599
1953331.00	587
1953920.00	589
1954507.00	587
1955114.00	607
1955778.00	664
1956465.00	687
1957146.00	681
1957856.00	710
1958611.00	755
1959421.00	810
1960247.00	826
1960991.00	744
1961778.00	787
1962574.00	796
1963363.00	789
1964142.00	779
1964884.00	742
1965634.00	750
1966376.00	742
1967141.00	765
1967873.00	732
1968611.00	738
1969351.00	740
1970108.00	757
1970842.00	734
1971584.00	742
1972351.00	767
1973108.00	757
1973848.00	740
1974584.00	736
1975310.00	726
1976048.00	738
1976768.00	720
1977486.00	718
1978196.00	710
1978916.00	720
1979617.00	701
1980327.00	710
1981030.00	703
1981750.00	720
1982464.00	714
1983184.00	720
1983902.00	718
1984636.00	734
1985352.00	716
1986074.00	722
1986798.00	724
1987522.00	724
1988242.00	720
1988970.00	728
1989688.00	718
1990397.00	709
1991121.00	724
1991845.00	724
1992583.00	738
1993297.00	714
1994017.00	720
1994729.00	712
1995443.00	714
1996152.00	709
1996859.00	707
1997571.00	712
1998278.00	707
1998996.00	718
1999708.00	712
2000432.00	724
2001146.00	714
2001858.00	712
2002567.00	709
2003287.00	720
2003997.00	710
2004702.00	705
2005403.00	701
2006119.00	716
2006826.00	707
2007536.00	710
2008245.00	709
2008971.00	726
2009697.00	726
2010431.00	734
2011181.00	750
2011931.00	750
2012696.00	765
2013471.00	775
2014244.00	773
2014984.00	740
2015726.00	742
2016454.00	728
2017186.00	732
2017904.00	718
2018638.00	734
2019370.00	732
2020096.00	726
2020830.00	734
2021554.00	724
2022284.00	730
2023000.00	716
2023712.00	712
2024421.00	709
2025128.00	707
2025835.00	707
2026542.00	707
2027243.00	701
2027959.00	716
2028683.00	724
2029397.00	714
2030113.00	716
2030831.00	718
2031553.00	722
2032269.00	716
2032987.00	718
2033713.00	726
2034437.00	724
2035163.00	726
2035868.00	705
2036594.00	726
2037334.00	740
2038070.00	736
2038812.00	742
2039571.00	759
2040321.00	750
2041055.00	734
2041777.00	722
2042519.00	742
2043257.00	738
2043981.00	724
2044705.00	724
2045455.00	750
2046181.00	726
2046899.00	718
2047617.00	718
2048343.00	726
2049059.00	716
2049766.00	707
2050467.00	701
2051193.00	726
2051911.00	718
2052621.00	710
2053337.00	716
2054051.00	714
2054761.00	710
2055464.00	703
2056173.00	709
2056882.00	709
2057594.00	712
2058297.00	703
2059023.00	726
2059749.00	726
2060469.00	720
2061176.00	707
2061910.00	734
2062640.00	730
2063356.00	716
2064072.00	716
2064800.00	728
2065518.00	718
2066228.00	710
2066944.00	716
2067656.00	712
2068376.00	720
2069100.00	724
2069846.00	746
2070576.00	730
2071288.00	712
2071998.00	710
2072707.00	709
2073412.00	705
2074099.00	687
2074802.00	703
2075493.00	691
2076190.00	697
2076877.00	687
2077587.00	710
2078297.00	710
2079002.00	705
2079705.00	703
2080425.00	720
2081139.00	714
2081842.00	703
2082539.00	697
2083244.00	705
2083945.00	701
2084634.00	689
2085317.00	683
2086010.00	693
2086701.00	691
2087374.00	673
2088051.00	677
2088730.00	679
2089427.00	697
2090114.00	687
2090795.00	681
2091468.00	673
2092137.00	669
2092787.00	650
2093435.00	648
2094069.00	634
2094699.00	630
2095349.00	650
2095995.00	646
2096655.00	660
2097365.00	710
2098120.00	755
2098844.00	724
2099586.00	742
2100326.00	740
2101056.00	730
2101766.00	710
2102469.00	703
2103158.00	689
2103827.00	669
2104512.00	685
2105230.00	718
2105956.00	726
2106698.00	742
2107410.00	712
2108142.00	732
2108890.00	748
2109688.00	798
2110449.00	761
2111242.00	793
2112023.00	781
2112761.00	738
2113505.00	744
2114217.00	712
2114912.00	695
2115607.00	695
2116288.00	681
2116961.00	673
2117660.00	699
2118367.00	707
2119072.00	705
2119767.00	695
2120493.00	726
2121245.00	752
2121975.00	730
2122697.00	722
2123402.00	705
2124134.00	732
2124852.00	718
2125549.00	697
2126228.00	679
2126923.00	695
2127641.00	718
2128365.00	724
2129068.00	703
2129765.00	697
2130436.00	671
2131084.00	648
2131769.00	685
2132472.00	703
2133169.00	697
2133846.00	677
2134502.00	656
2135168.00	666
2135841.00	673
2136524.00	683
2137221.00	697
2137961.00	740
2138740.00	779
2139486.00	746
2140259.00	773
2141032.00	773
2141811.00	779
2142549.00	738
2143287.00	738
2144023.00	736
2144778.00	755
2145512.00	734
2146256.00	744
2146988.00	732
2147740.00	752
2148472.00	732
2149216.00	744
2149942.00	726
2150690.00	748
2151418.00	728
2152148.00	730
2152882.00	734
2153647.00	765
2154391.00	744
2155139.00	748
2155898.00	759
2156689.00	791
2157446.00	757
2158201.00	755
2158958.00	757
2159717.00	759
2160441.00	724
2161173.00	732
2161917.00	744
2162682.00	765
2163428.00	746
2164160.00	732
2164892.00	732
2165622.00	730
2166340.00	718
2167037.00	697
2167749.00	712
2168473.00	724
2169191.00	718
2169898.00	707
2170630.00	732
2171366.00	736
2172104.00	738
2172842.00	738
2173599.00	757
2174347.00	748
2175085.00	738
2175829.00	744
2176569.00	740
2177315.00	746
2178051.00	736
2178787.00	736
2179509.00	722
2180208.00	699
2180924.00	716
2181634.00	710
2182344.00	710
2183045.00	701
2183755.00	710
2184465.00	710
2185158.00	693
2185872.00	714
2186582.00	710
2187298.00	716
2188003.00	705
2188731.00	728
2189447.00	716
2190150.00	703
2190860.00	710
2191572.00	712
2192286.00	714
2192983.00	697
2193707.00	724
2194419.00	712
2195128.00	709
2195825.00	697
2196547.00	722
2197252.00	705
2197947.00	695
2198646.00	699
2199351.00	705
2200071.00	720
2200797.00	726
2201547.00	750
2202271.00	724
2202983.00	712
2203693.00	710
2204413.00	720
2205137.00	724
2205853.00	716
2206577.00	724
2207299.00	722
2208015.00	716
2208737.00	722
2209475.00	738
2210213.00	738
2210951.00	738
2211706.00	755
2212438.00	732
2213150.00	712
2213849.00	699
2214554.00	705
2215263.00	709
2215950.00	687
2216664.00	714
2217392.00	728
2218114.00	722
2218832.00	718
2219572.00	740
2220310.00	738
2221034.00	724
2221768.00	734
2222494.00	726
2223226.00	732
2223942.00	716
2224672.00	730
2225394.00	722
2226106.00	712
2226803.00	697
2227519.00	716
2228237.00	718
2228949.00	712
2229675.00	726
2230417.00	742
2231161.00	744
2231901.00	740
2232645.00	744
2233365.00	720
2234068.00	703
2234765.00	697
2235460.00	695
2236155.00	695
2236823.00	668
2237516.00	693
2238225.00	709
2238941.00	716
2239644.00	703
2240366.00	722
2241090.00	724
2241826.00	736
2242560.00	734
2243306.00	746
2244026.00	720
2244736.00	710
2245441.00	705
2246163.00	722
2246877.00	714
2247586.00	709
2248298.00	712
2249008.00	710
2249724.00	716
2250427.00	703
2251151.00	724
2251863.00	712
2252560.00	697
2253261.00	701
2253948.00	687
2254635.00	687
2255318.00	683
2256019.00	701
2256718.00	699
2257407.00	689
2258110.00	703
2258815.00	705
2259516.00	701
2260189.00	673
2260862.00	673
2261524.00	662
2262164.00	640
2262810.00	646
2263450.00	640
2264077.00	627
2264709.00	632
2265339.00	630
2265966.00	627
2266591.00	625
2267229.00	638
2267861.00	632
2268503.00	642
2269135.00	632
2269783.00	648
2270445.00	662
2271116.00	671
2271774.00	658
2272453.00	679
2273138.00	685
2273825.00	687
2274506.00	681
2275218.00	712
2275930.00	712
2276623.00	693
2277308.00	685
2278017.00	709
2278726.00	709
2279419.00	693
2280106.00	687
2280815.00	709
2281516.00	701
2282207.00	691
2282890.00	683
2283591.00	701
2284288.00	697
2284979.00	691
2285656.00	677
2286365.00	709
2287064.00	699
2287741.00	677
2288418.00	677
2289107.00	689
2289792.00	685
2290456.00	664
2291127.00	671
2291824.00	697
2292529.00	705
2293220.00	691
2293915.00	695
2294627.00	712
2295336.00	709
2296029.00	693
2296736.00	707
2297445.00	709
2298150.00	705
2298851.00	701
2299571.00	720
2300287.00	716
2300990.00	703
2301700.00	710
2302412.00	712
2303122.00	710
2303832.00	710
2304560.00	728
2305280.00	720
2305985.00	705
2306699.00	714
2307421.00	722
2308131.00	710
2308818.00	687
2309515.00	697
2310210.00	695
2310913.00	703
2311592.00	679
2312301.00	709
2312998.00	697
2313685.00	687
2314362.00	677
2315057.00	695
2315754.00	697
2316447.00	693
2317173.00	726
2317917.00	744
2318657.00	740
2319432.00	775
2320205.00	773
2320939.00	734
2321694.00	755
2322440.00	746
2323156.00	716
2323878.00	722
2324583.00	705
2325307.00	724
2326027.00	720
2326763.00	736
2327501.00	738
2328264.00	763
2329004.00	740
2329746.00	742
2330482.00	736
2331216.00	734
2331930.00	714
2332637.00	707
2333338.00	701
2334048.00	710
2334758.00	710
2335457.00	699
2336158.00	701
2336857.00	699
2337558.00	701
2338249.00	691
2338981.00	732
2339711.00	730
2340447.00	736
2341175.00	728
2341893.00	718
2342611.00	718
2343294.00	683
2343993.00	699
2344680.00	687
2345359.00	679
2346025.00	666
2346722.00	697
2347417.00	695
2348100.00	683
2348787.00	687
2349503.00	716
2350231.00	728
2350951.00	720
2351669.00	718
2352399.00	730
2353119.00	720
2353822.00	703
2354525.00	703
2355230.00	705
2355933.00	703
2356604.00	671
2357289.00	685
2357980.00	691
2358671.00	691
2359342.00	671
2360021.00	679
2360718.00	697
2361427.00	709
2362112.00	685
2362819.00	707
2363535.00	716
2364249.00	714
2364956.00	707
2365668.00	712
2366380.00	712
2367079.00	699
2367754.00	675
2368455.00	701
2369144.00	689
2369819.00	675
2370492.00	673
2371202.00	710
2371918.00	716
2372630.00	712
2373348.00	718
2374070.00	722
2374788.00	718
2375485.00	697
2376197.00	712
2376896.00	699
2377577.00	681
2378250.00	673
2378943.00	693
2379630.00	687
2380294.00	664
2380967.00	673
2381666.00	699
2382373.00	707
2383074.00	701
2383781.00	707
2384501.00	720
2385217.00	716
2385922.00	705
2386621.00	699
2387320.00	699
2388005.00	685
2388667.00	662
2389354.00	687
2390047.00	693
2390736.00	689
2391413.00	677
2392094.00	681
2392781.00	687
2393470.00	689
2394138.00	668
2394819.00	681
2395512.00	693
2396201.00	689
2396878.00	677
2397577.00	699
2398274.00	697
2398957.00	683
2399634.00	677
2400333.00	699
2401032.00	699
2401705.00	673
2402369.00	664
2403050.00	681
2403727.00	677
2404381.00	654
2405052.00	671
2405751.00	699
2406446.00	695
2407135.00	689
2407840.00	705
2408576.00	736
2409294.00	718
2409985.00	691
2410672.00	687
2411355.00	683
2412032.00	677
2412678.00	646
2413344.00	666
2414012.00	668
2414672.00	660
2415328.00	656
2416015.00	687
2416700.00	685
2417368.00	668
2418045.00	677
2418738.00	693
2419427.00	689
2420096.00	669
2420775.00	679
2421464.00	689
2422147.00	683
2422816.00	669
2423511.00	695
2424204.00	693
2424889.00	685
2425570.00	681
2426275.00	705
2426978.00	703
2427679.00	701
2428388.00	709
2429108.00	720
2429809.00	701
2430508.00	699
2431213.00	705
2431922.00	709
2432617.00	695
2433292.00	675
2433971.00	679
2434640.00	669
2435300.00	660
2435948.00	648
2436616.00	668
2437293.00	677
2437964.00	671
2438635.00	671
2439322.00	687
2440017.00	695
2440710.00	693
2441407.00	697
2442108.00	701
2442809.00	701
2443506.00	697
2444205.00	699
2444896.00	691
2445575.00	679
2446260.00	685
2446939.00	679
2447595.00	656
2448255.00	660
2448926.00	671
2449594.00	668
2450256.00	662
2450933.00	677
2451606.00	673
2452266.00	660
2452932.00	666
2453603.00	671
2454265.00	662
2454909.00	644
2455555.00	646
2456199.00	644
2456826.00	627
2457460.00	634
2458100.00	640
2458732.00	632
2459362.00	630
2460008.00	646
2460652.00	644
2461284.00	632
2461916.00	632
2462562.00	646
2463202.00	640
2463834.00	632
2464466.00	632
2465108.00	642
2465746.00	638
2466380.00	634
2467034.00	654
2467690.00	656
2468342.00	652
2469004.00	662
2469666.00	662
2470322.00	656
2470966.00	644
2471620.00	654
2472276.00	656
2472924.00	648
2473570.00	646
2474226.00	656
2474876.00	650
2475520.00	644
2476176.00	656
2476840.00	664
2477502.00	662
2478154.00	652
2478818.00	664
2479493.00	675
2480170.00	677
2480845.00	675
2481526.00	681
2482197.00	671
2482853.00	656
2483503.00	650
2484165.00	662
2484817.00	652
2485461.00	644
2486132.00	671
2486800.00	668
2487464.00	664
2488149.00	685
2488844.00	695
2489531.00	687
2490210.00	679
2490895.00	685
2491570.00	675
2492238.00	668
2492888.00	650
2493550.00	662
2494208.00	658
2494860.00	652
2495526.00	666
2496192.00	666
2496856.00	664
2497525.00	669
2498204.00	679
2498881.00	677
2499541.00	660
2500212.00	671
2500881.00	669
2501535.00	654
2502179.00	644
2502833.00	654
2503481.00	648
2504111.00	630
2504755.00	644
2505407.00	652
2506055.00	648
2506699.00	644
2507367.00	668
2508040.00	673
2508711.00	671
2509382.00	671
2510065.00	683
2510742.00	677
2511398.00	656
2512064.00	666
2512724.00	660
2513362.00	638
2513985.00	623
2514623.00	638
2515291.00	668
2515962.00	671
2516639.00	677
2517338.00	699
2518048.00	710
2518760.00	712
2519474.00	714
2520179.00	705
2520862.00	683
2521512.00	650
2522146.00	634
2522771.00	625
2523376.00	605
2523989.00	613
2524616.00	627
2525241.00	625
2525864.00	623
2526512.00	648
2527164.00	652
2527818.00	654
2528454.00	636
2529082.00	628
2529738.00	656
2530407.00	669
2531065.00	658
2531738.00	673
2532419.00	681
2533098.00	679
2533766.00	668
2534447.00	681
2535118.00	671
2535774.00	656
2536434.00	660
2537105.00	671
2537776.00	671
2538440.00	664
2539098.00	658
2539769.00	671
2540433.00	664
2541087.00	654
2541753.00	666
2542421.00	668
2543083.00	662
2543752.00	669
2544441.00	689
2545128.00	687
2545805.00	677
2546498.00	693
2547181.00	683
2547847.00	666
2548507.00	660
2549178.00	671
2549847.00	669
2550503.00	656
2551182.00	679
2551861.00	679
2552534.00	673
2553211.00	677
2553892.00	681
2554577.00	685
2555250.00	673
2555933.00	683
2556602.00	669
2557258.00	656
2557912.00	654
2558585.00	673
2559253.00	668
2559901.00	648
2560559.00	658
2561225.00	666
2561885.00	660
2562541.00	656
2563209.00	668
2563884.00	675
2564542.00	658
2565210.00	668
2565878.00	668
2566540.00	662
2567208.00	668
2567885.00	677
2568560.00	675
2569226.00	666
2569888.00	662
2570540.00	652
2571174.00	634
2571816.00	642
2572444.00	628
2573084.00	640
2573709.00	625
2574306.00	597
2574890.00	584
2575462.00	572
2576028.00	566
2576598.00	570
2577166.00	568
2577736.00	570
2578308.00	572
2578892.00	584
2579487.00	595
2580104.00	617
2580752.00	648
2581451.00	699
2582251.00	800
2583045.00	794
2583851.00	806
2584669.00	818
2585413.00	744
2586149.00	736
2586873.00	724
2587583.00	710
2588284.00	701
2588961.00	677
2589632.00	671
2590329.00	697
2591036.00	707
2591756.00	720
2592533.00	777
2593271.00	738
2594046.00	775
2594850.00	804
2595578.00	728
2596310.00	732
2597030.00	720
2597740.00	710
2598437.00	697
2599130.00	693
2599807.00	677
2600502.00	695
2601197.00	695
2601896.00	699
2602593.00	697
2603309.00	716
2604014.00	705
2604717.00	703
2605410.00	693
2606117.00	707
2606818.00	701
2607515.00	697
2608212.00	697
2608926.00	714
2609627.00	701
2610318.00	691
2611019.00	701
2611718.00	699
2612411.00	693
2613098.00	687
2613795.00	697
2614496.00	701
2615185.00	689
2615876.00	691
2616596.00	720
2617322.00	726
2618029.00	707
2618720.00	691
2619415.00	695
2620102.00	687
2620771.00	669
2621433.00	662
2622110.00	677
2622791.00	681
2623451.00	660
2624111.00	660
2624796.00	685
2625477.00	681
2626135.00	658
2626795.00	660
2627480.00	685
2628161.00	681
2628834.00	673
2629517.00	683
2630220.00	703
2630909.00	689
2631578.00	669
2632246.00	668
2632923.00	677
2633585.00	662
2634210.00	625
2634815.00	605
2635422.00	607
2636068.00	646
2636716.00	648
2637356.00	640
2638014.00	658
2638715.00	701
2639410.00	695
2640115.00	705
2640839.00	724
2641573.00	734
2642291.00	718
2643005.00	714
2643692.00	687
2644383.00	691
2645052.00	669
2645694.00	642
2646336.00	642
2647007.00	671
2647692.00	685
2648360.00	668
2649051.00	691
2649756.00	705
2650459.00	703
2651158.00	699
2651884.00	726
2652594.00	710
2653308.00	714
2654020.00	712
2654734.00	714
2655431.00	697
2656128.00	697
2656819.00	691
2657500.00	681
2658183.00	683
2658843.00	660
2659520.00	677
2660215.00	695
2660910.00	695
2661615.00	705
2662349.00	734
2663059.00	710
2663779.00	720
2664499.00	720
2665211.00	712
2665916.00	705
2666589.00	673
2667258.00	669
2667941.00	683
2668618.00	677
2669278.00	660
2669949.00	671
2670636.00	687
2671315.00	679
2671975.00	660
2672652.00	677
2673343.00	691
2674024.00	681
2674697.00	673
2675384.00	687
2676069.00	685
2676740.00	671
2677408.00	668
2678083.00	675
2678754.00	671
2679410.00	656
2680081.00	671
2680762.00	681
2681437.00	675
2682105.00	668
2682798.00	693
2683487.00	689
2684160.00	673
2684837.00	677
2685532.00	695
2686227.00	695
2686902.00	675
2687577.00	675
2688270.00	693
2688949.00	679
2689607.00	658
2690271.00	664
2690946.00	675
2691604.00	658
2692248.00	644
2692908.00	660
2693574.00	666
2694236.00	662
2694886.00	650
2695569.00	683
2696250.00	681
2696921.00	671
2697587.00	666
2698282.00	695
2698969.00	687
2699644.00	675
2700325.00	681
2701006.00	681
2701679.00	673
2702329.00	650
2702989.00	660
2703664.00	675
2704322.00	658
2704972.00	650
2705626.00	654
2706305.00	679
2706976.00	671
2707634.00	658
2708307.00	673
2708998.00	691
2709685.00	687
2710347.00	662
2711009.00	662
2711690.00	681
2712358.00	668
2713022.00	664
2713705.00	683
2714417.00	712
2715126.00	709
2715817.00	691
2716500.00	683
2717197.00	697
2717886.00	689
2718555.00	669
2719232.00	677
2719917.00	685
2720602.00	685
2721271.00	669
2721946.00	675
2722653.00	707
2723360.00	707
2724063.00	703
2724787.00	724
2725533.00	746
2726257.00	724
2726962.00	705
2727653.00	691
2728348.00	695
2729027.00	679
2729689.00	662
2730353.00	664
2731042.00	689
2731725.00	683
2732383.00	658
2733041.00	658
2733716.00	675
2734389.00	673
2735043.00	654
2735712.00	669
2736409.00	697
2737112.00	703
2737791.00	679
2738470.00	679
2739167.00	697
2739850.00	683
2740512.00	662
2741181.00	669
2741866.00	685
2742547.00	681
2743220.00	673
2743862.00	642
2744483.00	621
2745094.00	611
2745730.00	636
2746349.00	619
2747001.00	652
2747682.00	681
2748367.00	685
2749036.00	669
2749702.00	666
2750391.00	689
2751088.00	697
2751761.00	673
2752415.00	654
2753083.00	668
2753768.00	685
2754453.00	685
2755132.00	679
2755837.00	705
2756563.00	726
2757281.00	718
2757974.00	693
2758653.00	679
2759344.00	691
2760025.00	681
2760693.00	668
2761351.00	658
2762034.00	683
2762737.00	703
2763428.00	691
2764097.00	669
2764782.00	685
2765469.00	687
2766150.00	681
2766802.00	652
2767454.00	652
2768123.00	669
2768787.00	664
2769429.00	642
2770075.00	646
2770754.00	679
2771443.00	689
2772130.00	687
2772801.00	671
2773488.00	687
2774193.00	705
2774894.00	701
2775575.00	681
2776266.00	691
2776971.00	705
2777664.00	693
2778337.00	673
2779016.00	679
2779717.00	701
2780412.00	695
2781085.00	673
2781756.00	671
2782457.00	701
2783144.00	687
2783815.00	671
2784481.00	666
2785170.00	689
2785855.00	685
2786524.00	669
2787205.00	681
2787912.00	707
2788617.00	705
2789304.00	687
2789983.00	679
2790686.00	703
2791371.00	685
2792035.00	664
2792679.00	644
2793343.00	664
2794007.00	664
2794661.00	654
2795309.00	648
2795980.00	671
2796673.00	693
2797362.00	689
2798041.00	679
2798722.00	681
2799415.00	693
2800104.00	689
2800770.00	666
2801439.00	669
2802124.00	685
2802801.00	677
2803457.00	656
2804107.00	650
2804784.00	677
2805463.00	679
2806131.00	668
2806777.00	646
2807433.00	656
2808091.00	658
2808745.00	654
2809385.00	640
2810023.00	638
2810661.00	638
2811299.00	638
2811935.00	636
2812569.00	634
2813194.00	625
2813822.00	628
2814499.00	677
2815176.00	677
2815845.00	669
2816511.00	666
2817159.00	648
2817791.00	632
2818427.00	636
2819079.00	652
2819745.00	666
2820407.00	662
2821059.00	652
2821711.00	652
2822375.00	664
2823048.00	673
2823710.00	662
2824346.00	636
2824974.00	628
2825604.00	630
2826238.00	634
2826866.00	628
2827481.00	615
2828111.00	630
2828755.00	644
2829417.00	662
2830085.00	668
2830735.00	650
2831363.00	628
2831978.00	615
2832579.00	601
2833172.00	593
2833769.00	597
2834364.00	595
2834951.00	587
2835535.00	584
2836120.00	585
2836698.00	578
2837287.00	589
2837894.00	607
2838509.00	615
2839128.00	619
2839739.00	611
2840348.00	609
2840953.00	605
2841546.00	593
2842135.00	589
2842709.00	574
2843283.00	574
2843857.00	574
2844423.00	566
2844995.00	572
2845565.00	570
2846139.00	574
2846740.00	601
2847372.00	632
2848082.00	710
2848955.00	873
2849908.00	953
2850753.00	845
2851528.00	775
2852276.00	748
2853000.00	724
2853697.00	697
2854368.00	671
2855039.00	671
2855730.00	691
2856437.00	707
2857149.00	712
2857865.00	716
2858560.00	695
2859229.00	669
2859871.00	642
2860531.00	660
2861208.00	677
2861885.00	677
2862554.00	669
2863196.00	642
2863821.00	625
2864446.00	625
2865071.00	625
2865731.00	660
2866428.00	697
2867156.00	728
2867898.00	742
2868620.00	722
2869334.00	714
2870044.00	710
2870756.00	712
2871451.00	695
2872124.00	673
2872799.00	675
2873496.00	697
2874185.00	689
2874853.00	668
2875519.00	666
2876220.00	701
2876921.00	701
2877600.00	679
2878277.00	677
2878984.00	707
2879679.00	695
2880350.00	671
2881019.00	669
2881708.00	689
2882413.00	705
2883104.00	691
2883775.00	671
2884456.00	681
2885161.00	705
2885879.00	718
2886582.00	703
2887263.00	681
2887952.00	689
2888653.00	701
2889350.00	697
2890021.00	671
2890696.00	675
2891391.00	695
2892082.00	691
2892748.00	666
2893429.00	681
2894134.00	705
2894833.00	699
2895514.00	681
2896205.00	691
2896900.00	695
2897587.00	687
2898258.00	671
2898951.00	693
2899648.00	697
2900331.00	683
2901006.00	675
2901707.00	701
2902402.00	695
2903081.00	679
2903758.00	677
2904463.00	705
2905160.00	697
2905839.00	679
2906512.00	673
2907207.00	695
2907898.00	691
2908564.00	666
2909233.00	669
2909932.00	699
2910623.00	691
2911300.00	677
2911968.00	668
2912655.00	687
2913367.00	712
2914066.00	699
2914747.00	681
2915444.00	697
2916147.00	703
2916842.00	695
2917517.00	675
2918175.00	658
2918848.00	673
2919533.00	685
2920204.00	671
2920873.00	669
2921566.00	693
2922267.00	701
2922958.00	691
2923639.00	681
2924342.00	703
2925041.00	699
2925720.00	679
2926399.00	679
2927074.00	675
2927738.00	664
2928382.00	644
2929026.00	644
2929662.00	636
2930287.00	625
2930925.00	638
2931571.00	646
2932203.00	632
2932845.00	642
2933509.00	664
2934180.00	671
2934834.00	654
2935484.00	650
2936159.00	675
2936825.00	666
2937455.00	630
2938099.00	644
2938729.00	630
2939342.00	613
2939947.00	605
2940542.00	595
2941133.00	591
2941720.00	587
2942298.00	578
2942880.00	582
2943467.00	587
2944064.00	597
2944653.00	589
2945240.00	587
2945847.00	607
2946501.00	654
2947169.00	668
2947862.00	693
2948567.00	705
2949285.00	718
2950027.00	742
2950749.00	722
2951454.00	705
2952145.00	691
2952854.00	709
2953572.00	718
2954275.00	703
2954968.00	693
2955665.00	697
2956389.00	724
2957098.00	709
2957805.00	707
2958506.00	701
2959234.00	728
2959956.00	722
2960661.00	705
2961358.00	697
2962078.00	720
2962785.00	707
2963474.00	689
2964157.00	683
2964869.00	712
2965570.00	701
2966259.00	689
2966956.00	697
2967686.00	730
2968393.00	707
2969074.00	681
2969767.00	693
2970476.00	709
2971175.00	699
2971858.00	683
2972545.00	687
2973248.00	703
2973949.00	701
2974624.00	675
2975305.00	681
2976004.00	699
2976703.00	699
2977388.00	685
2978081.00	693
2978784.00	703
2979479.00	695
2980156.00	677
2980855.00	699
2981573.00	718
2982283.00	710
2982980.00	697
2983681.00	701
2984395.00	714
2985100.00	705
2985789.00	689
2986496.00	707
2987201.00	705
2987882.00	681
2988565.00	683
2989260.00	695
2989951.00	691
2990620.00	669
2991309.00	689
2992016.00	707
2992725.00	709
2993424.00	699
2994125.00	701
2994822.00	697
2995501.00	679
2996174.00	673
2996863.00	689
2997556.00	693
2998227.00	671
2998904.00	677
2999599.00	695
3000292.00	693
3000973.00	681
3001678.00	705
3002392.00	714
3003089.00	697
3003778.00	689
3004485.00	707
3005178.00	693
3005846.00	668
3006512.00	666
3007187.00	675
3007855.00	668
3008505.00	650
3009159.00	654
3009836.00	677
3010523.00	687
3011196.00	673
3011860.00	664
3012545.00	685
3013242.00	697
3013935.00	693
3014603.00	668
3015282.00	679
3015967.00	685
3016640.00	673
3017300.00	660
3017979.00	679
3018666.00	687
3019347.00	681
3020009.00	662
3020688.00	679
3021379.00	691
3022072.00	693
3022753.00	681
3023432.00	679
3024127.00	695
3024816.00	689
3025487.00	671
3026153.00	666
3026826.00	673
3027497.00	671
3028161.00	664
3028817.00	656
3029494.00	677
3030179.00	685
3030850.00	671
3031502.00	652
3032170.00	668
3032853.00	683
3033534.00	681
3034198.00	664
3034867.00	669
3035562.00	695
3036255.00	693
3036928.00	673
3037615.00	687
3038333.00	718
3039057.00	724
3039754.00	697
3040449.00	695
3041167.00	718
3041881.00	714
3042572.00	691
3043251.00	679
3043954.00	703
3044653.00	699
3045328.00	675
3046003.00	675
3046702.00	699
3047399.00	697
3048076.00	677
3048759.00	683
3049456.00	697
3050143.00	687
3050812.00	669
3051503.00	691
3052206.00	703
3052899.00	693
3053582.00	683
3054283.00	701
3054980.00	697
3055665.00	685
3056350.00	685
3057053.00	703
3057752.00	699
3058435.00	683
3059122.00	687
3059823.00	701
3060522.00	699
3061199.00	677
3061874.00	675
3062571.00	697
3063260.00	689
3063931.00	671
3064604.00	673
3065297.00	693
3065990.00	693
3066671.00	681
3067335.00	664
3068016.00	681
3068717.00	701
3069420.00	703
3070101.00	681
3070778.00	677
3071467.00	689
3072156.00	689
3072847.00	691
3073520.00	673
3074199.00	679
3074894.00	695
3075604.00	710
3076307.00	703
3076994.00	687
3077685.00	691
3078390.00	705
3079100.00	710
3079791.00	691
3080472.00	681
3081171.00	699
3081866.00	695
3082547.00	681
3083224.00	677
3083927.00	703
3084645.00	718
3085363.00	718
3086068.00	705
3086784.00	716
3087514.00	730
3088219.00	705
3088900.00	681
3089585.00	685
3090272.00	687
3090945.00	673
3091622.00	677
3092309.00	687
3092994.00	685
3093667.00	673
3094333.00	666
3095020.00	687
3095705.00	685
3096371.00	666
3097044.00	673
3097737.00	693
3098430.00	693
3099101.00	671
3099767.00	666
3100440.00	673
3101109.00	669
3101761.00	652
3102425.00	664
3103096.00	671
3103762.00	666
3104410.00	648
3105062.00	652
3105743.00	681
3106414.00	671
3107076.00	662
3107749.00	673
3108438.00	689
3109129.00	691
3109804.00	675
3110481.00	677
3111174.00	693
3111865.00	691
3112536.00	671
3113215.00	679
3113912.00	697
3114605.00	693
3115274.00	669
3115951.00	677
3116642.00	691
3117325.00	683
3117989.00	664
3118672.00	683
3119369.00	697
3120064.00	695
3120739.00	675
3121434.00	695
3122148.00	714
3122847.00	699
3123520.00	673
3124197.00	677
3124888.00	691
3125569.00	681
3126225.00	656
3126887.00	662
3127558.00	671
3128231.00	673
3128881.00	650
3129547.00	666
3130224.00	677
3130897.00	673
3131553.00	656
3132226.00	673
3132903.00	677
3133574.00	671
3134222.00	648
3134891.00	669
3135560.00	669
3136216.00	656
3136854.00	638
3137508.00	654
3138177.00	669
3138862.00	685
3139543.00	681
3140214.00	671
3140895.00	681
3141607.00	712
3142308.00	701
3142989.00	681
3143657.00	668
3144340.00	683
3145019.00	679
3145683.00	664
3146341.00	658
3147020.00	679
3147695.00	675
3148351.00	656
3149017.00	666
3149690.00	673
3150361.00	671
3151013.00	652
3151671.00	658
3152348.00	677
3153023.00	675
3153681.00	658
3154347.00	666
3155034.00	687
3155719.00	685
3156385.00	666
3157049.00	664
3157738.00	689
3158425.00	687
3159089.00	664
3159745.00	656
3160416.00	671
3161078.00	662
3161720.00	642
3162350.00	630
3162982.00	632
3163620.00	638
3164254.00	634
3164884.00	630
3165511.00	627
3166130.00	619
3166729.00	599
3167324.00	595
3167909.00	585
3168487.00	578
3169074.00	587
3169667.00	593
3170258.00	591
3170853.00	595
3171442.00	589
3172033.00	591
3172638.00	605
3173259.00	621
3173887.00	628
3174523.00	636
3175165.00	642
3175823.00	658
3176504.00	681
3177195.00	691
3177872.00	677
3178526.00	654
3179162.00	636
3179789.00	627
3180419.00	630
3181067.00	648
3181725.00	658
3182373.00	648
3183033.00	660
3183708.00	675
3184403.00	695
3185096.00	693
3185783.00	687
3186451.00	668
3187134.00	683
3187839.00	705
3188534.00	695
3189211.00	677
3189890.00	679
3190587.00	697
3191309.00	722
3192021.00	712
3192722.00	701
3193419.00	697
3194129.00	710
3194859.00	730
3195575.00	716
3196276.00	701
3196953.00	677
3197650.00	697
3198353.00	703
3199056.00	703
3199737.00	681
3200440.00	703
3201164.00	724
3201869.00	705
3202556.00	687
3203243.00	687
3203950.00	707
3204660.00	710
3205359.00	699
3206040.00	681
3206747.00	707
3207450.00	703
3208135.00	685
3208816.00	681
3209521.00	705
3210222.00	701
3210905.00	683
3211600.00	695
3212322.00	722
3213042.00	720
3213751.00	709
3214460.00	709
3215182.00	722
3215889.00	707
3216570.00	681
3217251.00	681
3217952.00	701
3218643.00	691
3219314.00	671
3219991.00	677
3220690.00	699
3221393.00	703
3222074.00	681
3222767.00	693
3223460.00	693
3224143.00	683
3224801.00	658
3225482.00	681
3226167.00	685
3226852.00	685
3227535.00	683
3228234.00	699
3228923.00	689
3229602.00	679
3230301.00	699
3231004.00	703
3231701.00	697
3232382.00	681
3233081.00	699
3233786.00	705
3234481.00	695
3235168.00	687
3235863.00	695
3236552.00	689
3237223.00	671
3237916.00	693
3238623.00	707
3239322.00	699
3240023.00	701
3240735.00	712
3241442.00	707
3242127.00	685
3242834.00	707
3243541.00	707
3244226.00	685
3244911.00	685
3245606.00	695
3246295.00	689
3246959.00	664
3247638.00	679
3248331.00	693
3249020.00	689
3249701.00	681
3250404.00	703
3251113.00	709
3251810.00	697
3252519.00	709
3253237.00	718
3253947.00	710
3254648.00	701
3255372.00	724
3256096.00	724
3256801.00	705
3257496.00	695
3258197.00	701
3258886.00	689
3259559.00	673
3260240.00	681
3260911.00	671
3261569.00	658
3262229.00	660
3262908.00	679
3263593.00	685
3264264.00	671
3264959.00	695
3265660.00	701
3266355.00	695
3267042.00	687
3267751.00	709
3268454.00	703
3269133.00	679
3269816.00	683
3270493.00	677
3271157.00	664
3271825.00	668
3272510.00	685
3273203.00	693
3273878.00	675
3274573.00	695
3275272.00	699
3275965.00	693
3276654.00	689
3277355.00	701
3278052.00	697
3278727.00	675
3279404.00	677
3280087.00	683
3280762.00	675
3281418.00	656
3282084.00	666
3282755.00	671
3283421.00	666
3284087.00	666
3284770.00	683
3285453.00	683
3286117.00	664
3286800.00	683
3287491.00	691
3288174.00	683
3288851.00	677
3289550.00	699
3290245.00	695
3290916.00	671
3291603.00	687
3292298.00	695
3292985.00	687
3293672.00	687
3294386.00	714
3295093.00	707
3295784.00	691
3296471.00	687
3297180.00	709
3297894.00	714
3298585.00	691
3299280.00	695
3299985.00	705
3300678.00	693
3301349.00	671
3302034.00	685
3302709.00	675
3303369.00	660
3304033.00	664
3304720.00	687
3305399.00	679
3306063.00	664
3306736.00	673
3307427.00	691
3308118.00	691
3308795.00	677
3309505.00	710
3310217.00	712
3310916.00	699
3311613.00	697
3312314.00	701
3313003.00	689
3313671.00	668
3314364.00	693
3315049.00	685
3315715.00	666
3316394.00	679
3317085.00	691
3317778.00	693
3318463.00	685
3319162.00	699
3319857.00	695
3320536.00	679
3321213.00	677
3321904.00	691
3322595.00	691
3323274.00	679
3323973.00	699
3324685.00	712
3325388.00	703
3326077.00	689
3326780.00	703
3327485.00	705
3328168.00	683
3328853.00	685
3329538.00	685
3330221.00	683
3330881.00	660
3331562.00	681
3332249.00	687
3332926.00	677
3333599.00	673
3334298.00	699
3334999.00	701
3335686.00	687
3336381.00	695
3337099.00	718
3337817.00	718
3338520.00	703
3339252.00	732
3339964.00	712
3340651.00	687
3341328.00	677
3342007.00	679
3342676.00	669
3343334.00	658
3344003.00	669
3344678.00	675
3345334.00	656
3346009.00	675
3346704.00	695
3347409.00	705
3348108.00	699
3348836.00	728
3349556.00	720
3350249.00	693
3350946.00	697
3351647.00	701
3352330.00	683
3352992.00	662
3353671.00	679
3354352.00	681
3355023.00	671
3355687.00	664
3356370.00	683
3357067.00	697
3357756.00	689
3358427.00	671
3359122.00	695
3359823.00	701
3360518.00	695
3361184.00	666
3361861.00	677
3362542.00	681
3363219.00	677
3363869.00	650
3364540.00	671
3365221.00	681
3365902.00	681
3366575.00	673
3367262.00	687
3367971.00	709
3368678.00	707
3369365.00	687
3370083.00	718
3370786.00	703
3371463.00	677
3372129.00	666
3372830.00	701
3373529.00	699
3374212.00	683
3374907.00	695
3375619.00	712
3376328.00	709
3377015.00	687
3377710.00	695
3378415.00	705
3379110.00	695
3379774.00	664
3380451.00	677
3381111.00	660
3381739.00	628
3382375.00	636
3382998.00	623
3383621.00	623
3384246.00	625
3384861.00	615
3385478.00	617
3386099.00	621
3386729.00	630
3387377.00	648
3388025.00	648
3388698.00	673
3389395.00	697
3390088.00	693
3390765.00	677
3391438.00	673
3392129.00	691
3392806.00	677
3393460.00	654
3394122.00	662
3394809.00	687
3395502.00	693
3396189.00	687
3396880.00	691
3397598.00	718
3398322.00	724
3399027.00	705
3399741.00	714
3400481.00	740
3401213.00	732
3401914.00	701
3402607.00	693
3403308.00	701
3403999.00	691
3404665.00	666
3405348.00	683
3406039.00	691
3406714.00	675
3407395.00	681
3408100.00	705
3408801.00	701
3409498.00	697
3410214.00	716
3410921.00	707
3411606.00	685
3412281.00	675
3412978.00	697
3413665.00	687
3414334.00	669
3414992.00	658
3415675.00	683
3416360.00	685
3417028.00	668
3417701.00	673
3418402.00	701
3419105.00	703
3419784.00	679
3420485.00	701
3421186.00	701
3421873.00	687
3422542.00	669
3423237.00	695
3423947.00	710
3424640.00	693
3425315.00	675
3426012.00	697
3426709.00	697
3427384.00	675
3428053.00	669
3428750.00	697
3429445.00	695
3430122.00	677
3430807.00	685
3431514.00	707
3432215.00	701
3432888.00	673
3433565.00	677
3434246.00	681
3434915.00	669
3435573.00	658
3436258.00	685
3436957.00	699
3437658.00	701
3438345.00	687
3439055.00	710
3439762.00	707
3440443.00	681
3441114.00	671
3441801.00	687
3442492.00	691
3443165.00	673
3443862.00	697
3444567.00	705
3445260.00	693
3445939.00	679
3446642.00	703
3447339.00	697
3448014.00	675
3448695.00	681
3449386.00	691
3450071.00	685
3450742.00	671
3451431.00	689
3452130.00	699
3452809.00	679
3453478.00	669
3454173.00	695
3454862.00	689
3455535.00	673
3456216.00	681
3456917.00	701
3457612.00	695
3458280.00	668
3458965.00	685
3459658.00	693
3460337.00	679
3461006.00	669
3461705.00	699
3462406.00	701
3463091.00	685
3463782.00	691
3464489.00	707
3465192.00	703
3465879.00	687
3466582.00	703
3467292.00	710
3467989.00	697
3468668.00	679
3469367.00	699
3470074.00	707
3470753.00	679
3471415.00	662
3472094.00	679
3472787.00	693
3473478.00	691
3474153.00	675
3474848.00	695
3475566.00	718
3476273.00	707
3476958.00	685
3477670.00	712
3478375.00	705
3479052.00	677
3479725.00	673
3480408.00	683
3481083.00	675
3481721.00	638
3482367.00	646
3482986.00	619
3483603.00	617
3484237.00	634
3484875.00	638
3485541.00	666
3486257.00	716
3487003.00	746
3487731.00	728
3488443.00	712
3489163.00	720
3489868.00	705
3490541.00	673
3491189.00	648
3491845.00	656
3492501.00	656
3493147.00	646
3493774.00	627
3494420.00	646
3495089.00	669
3495766.00	677
3496426.00	660
3497094.00	668
3497816.00	722
3498532.00	716
3499217.00	685
3499906.00	689
3500605.00	699
3501286.00	681
3501940.00	654
3502596.00	656
3503275.00	679
3503948.00	673
3504596.00	648
3505250.00	654
3505927.00	677
3506606.00	679
3507268.00	662
3507936.00	668
3508627.00	691
3509332.00	705
3510017.00	685
3510702.00	685
3511414.00	712
3512107.00	693
3512761.00	654
3513395.00	634
3514031.00	636
3514658.00	627
3515267.00	609
3515860.00	593
3516457.00	597
3517046.00	589
3517659.00	613
3518280.00	621
3518907.00	627
3519569.00	662
3520278.00	709
3521022.00	744
3521742.00	720
3522460.00	718
3523186.00	726
3523920.00	734
3524630.00	710
3525307.00	677
3525971.00	664
3526658.00	687
3527361.00	703
3528048.00	687
3528729.00	681
3529463.00	734
3530234.00	771
3530989.00	755
3531735.00	746
3532487.00	752
3533225.00	738
3533937.00	712
3534620.00	683
3535313.00	693
3536018.00	705
3536713.00	695
3537388.00	675
3538083.00	695
3538809.00	726
3539541.00	732
3540246.00	705
3540976.00	730
3541698.00	722
3542395.00	697
3543057.00	662
3543738.00	681
3544419.00	681
3545087.00	668
3545723.00	636
3546351.00	628
3547022.00	671
3547666.00	644
3548287.00	621
3548896.00	609
3549489.00	593
3550102.00	613
3550752.00	650
3551427.00	675
3552104.00	677
3552760.00	656
3553441.00	681
3554157.00	716
3554881.00	724
3555578.00	697
3556271.00	693
3556981.00	710
3557707.00	726
3558425.00	718
3559112.00	687
3559807.00	695
3560525.00	718
3561251.00	726
3561946.00	695
3562639.00	693
3563349.00	710
3564063.00	714
3564770.00	707
3565445.00	675
3566107.00	662
3566788.00	681
3567487.00	699
3568178.00	691
3568842.00	664
3569480.00	638
3570122.00	642
3570778.00	656
3571422.00	644
3572080.00	658
3572785.00	705
3573497.00	712
3574192.00	695
3574869.00	677
3575566.00	697
3576273.00	707
3576962.00	689
3577618.00	656
3578295.00	677
3578990.00	695
3579697.00	707
3580400.00	703
3581101.00	701
3581833.00	732
3582575.00	742
3583303.00	728
3583992.00	689
3584710.00	718
3585430.00	720
3586127.00	697
3586806.00	679
3587520.00	714
3588236.00	716
3588937.00	701
3589647.00	710
3590381.00	734
3591105.00	724
3591798.00	693
3592499.00	701
3593215.00	716
3593920.00	705
3594603.00	683
3595300.00	697
3596009.00	709
3596706.00	697
3597385.00	679
3598092.00	707
3598806.00	714
3599511.00	705
3600196.00	685
3600903.00	707
3601612.00	709
3602301.00	689
3602990.00	689
3603704.00	714
3604436.00	732
3605145.00	709
3605844.00	699
3606576.00	732
3607310.00	734
3608007.00	697
3608702.00	695
3609412.00	710
3610124.00	712
3610809.00	685
3611496.00	687
3612206.00	710
3612911.00	705
3613592.00	681
3614275.00	683
3614976.00	701
3615665.00	689
3616334.00	669
3617017.00	683
3617731.00	714
3618440.00	709
3619123.00	683
3619826.00	703
3620538.00	712
3621231.00	693
3621897.00	666
3622576.00	679
3623269.00	693
3623962.00	693
3624635.00	673
3625318.00	683
3626021.00	703
3626712.00	691
3627383.00	671
3628068.00	685
3628769.00	701
3629460.00	691
3630137.00	677
3630830.00	693
3631517.00	687
3632185.00	668
3632856.00	671
3633541.00	685
3634212.00	671
3634866.00	654
3635539.00	673
3636226.00	687
3636901.00	675
3637563.00	662
3638244.00	681
3638935.00	691
3639601.00	666
3640259.00	658
3640936.00	677
3641609.00	673
3642269.00	660
3642911.00	642
3643569.00	658
3644231.00	662
3644877.00	646
3645515.00	638
3646179.00	664
3646847.00	668
3647505.00	658
3648151.00	646
3648822.00	671
3649501.00	679
3650167.00	666
3650821.00	654
3651498.00	677
3652169.00	671
3652825.00	656
3653475.00	650
3654146.00	671
3654810.00	664
3655458.00	648
3656102.00	644
3656775.00	673
3657450.00	675
3658114.00	664
3658782.00	668
3659477.00	695
3660164.00	687
3660820.00	656
3661486.00	666
3662163.00	677
3662831.00	668
3663477.00	646
3664143.00	666
3664822.00	679
3665497.00	675
3666151.00	654
3666805.00	654
3667474.00	669
3668149.00	675
3668807.00	658
3669455.00	648
3670121.00	666
3670792.00	671
3671446.00	654
3672090.00	644
3672746.00	656
3673414.00	668
3674078.00	664
3674728.00	650
3675384.00	656
3676053.00	669
3676726.00	673
3677384.00	658
3678026.00	642
3678684.00	658
3679352.00	668
3680016.00	664
3680658.00	642
3681310.00	652
3681979.00	669
3682643.00	664
3683285.00	642
3683927.00	642
3684596.00	669
3685269.00	673
3685921.00	652
3686579.00	658
3687256.00	677
3687927.00	671
3688577.00	650
3689235.00	658
3689914.00	679
3690589.00	675
3691253.00	664
3691909.00	656
3692590.00	681
3693269.00	679
3693927.00	658
3694581.00	654
3695252.00	671
3695923.00	671
3696583.00	660
3697229.00	646
3697881.00	652
3698552.00	671
3699216.00	664
3699850.00	634
3700467.00	617
3701082.00	615
3701701.00	619
3702333.00	632
3702954.00	621
3703565.00	611
3704192.00	627
3704832.00	640
3705462.00	630
3706094.00	632
3706744.00	650
3707410.00	666
3708074.00	664
3708726.00	652
3709382.00	656
3710055.00	673
3710738.00	683
3711406.00	668
3712058.00	652
3712724.00	666
3713390.00	666
3714040.00	650
3714696.00	656
3715369.00	673
3716042.00	673
3716702.00	660
3717364.00	662
3718047.00	683
3718730.00	683
3719407.00	677
3720065.00	658
3720734.00	669
3721425.00	691
3722110.00	685
3722778.00	668
3723436.00	658
3724115.00	679
3724816.00	701
3725513.00	697
3726188.00	675
3726863.00	675
3727560.00	697
3728259.00	699
3728948.00	689
3729623.00	675
3730314.00	691
3731005.00	691
3731673.00	668
3732325.00	652
3732993.00	668
3733672.00	679
3734345.00	673
3735009.00	664
3735712.00	703
3736419.00	707
3737110.00	691
3737795.00	685
3738504.00	709
3739209.00	705
3739892.00	683
3740571.00	679
3741278.00	707
3741981.00	703
3742654.00	673
3743323.00	669
3744024.00	701
3744729.00	705
3745414.00	685
3746105.00	691
3746815.00	710
3747510.00	695
3748185.00	675
3748849.00	664
3749538.00	689
3750219.00	681
3750892.00	673
3751561.00	669
3752256.00	695
3752965.00	709
3753652.00	687
3754339.00	687
3755044.00	705
3755760.00	716
3756459.00	699
3757134.00	675
3757811.00	677
3758510.00	699
3759201.00	691
3759872.00	671
3760553.00	681
3761269.00	716
3761974.00	705
3762655.00	681
3763340.00	685
3764060.00	720
3764770.00	710
3765457.00	687
3766144.00	687
3766858.00	714
3767563.00	705
3768252.00	689
3768945.00	693
3769654.00	709
3770359.00	705
3771032.00	673
3771715.00	683
3772422.00	707
3773123.00	701
3773804.00	681
3774493.00	689
3775217.00	724
3775933.00	716
3776620.00	687
3777309.00	689
3778018.00	709
3778715.00	697
3779390.00	675
3780069.00	679
3780768.00	699
3781457.00	689
3782121.00	664
3782798.00	677
3783495.00	697
3784186.00	691
3784857.00	671
3785534.00	677
3786229.00	695
3786920.00	691
3787591.00	671
3788274.00	683
3788977.00	703
3789676.00	699
3790351.00	675
3791038.00	687
3791737.00	699
3792428.00	691
3793097.00	669
3793772.00	675
3794461.00	689
3795144.00	683
3795810.00	666
3796483.00	673
3797180.00	697
3797871.00	691
3798542.00	671
3799215.00	673
3799916.00	701
3800611.00	695
3801286.00	675
3801963.00	677
3802658.00	695
3803347.00	689
3804016.00	669
3804693.00	677
3805390.00	697
3806077.00	687
3806741.00	664
3807412.00	671
3808103.00	691
3808784.00	681
3809438.00	654
3810102.00	664
3810775.00	673
3811441.00	666
3812079.00	638
3812696.00	617
3813313.00	617
3813938.00	625
3814570.00	632
3815187.00	617
3815802.00	615
3816429.00	627
3817081.00	652
3817762.00	681
3818459.00	697
3819148.00	689
3819858.00	710
3820590.00	732
3821324.00	734
3822042.00	718
3822727.00	685
3823420.00	693
3824136.00	716
3824843.00	707
3825520.00	677
3826207.00	687
3826925.00	718
3827659.00	734
3828383.00	724
3829115.00	732
3829874.00	759
3830622.00	748
3831340.00	718
3832074.00	734
3832826.00	752
3833558.00	732
3834261.00	703
3834981.00	720
3835703.00	722
3836402.00	699
3837097.00	695
3837804.00	707
3838503.00	699
3839178.00	675
3839877.00	699
3840578.00	701
3841267.00	689
3841962.00	695
3842676.00	714
3843383.00	707
3844070.00	687
3844765.00	695
3845475.00	710
3846178.00	703
3846855.00	677
3847546.00	691
3848247.00	701
3848942.00	695
3849623.00	681
3850316.00	693
3851011.00	695
3851684.00	673
3852367.00	683
3853054.00	687
3853741.00	687
3854407.00	666
3855098.00	691
3855789.00	691
3856474.00	685
3857155.00	681
3857860.00	705
3858553.00	693
3859228.00	675
3859909.00	681
3860610.00	701
3861297.00	687
3861957.00	660
3862626.00	669
3863313.00	687
3863994.00	681
3864656.00	662
3865329.00	673
3866020.00	691
3866713.00	693
3867388.00	675
3868077.00	689
3868780.00	703
3869473.00	693
3870152.00	679
3870849.00	697
3871550.00	701
3872233.00	683
3872910.00	677
3873611.00	701
3874312.00	701
3874991.00	679
3875672.00	681
3876369.00	697
3877064.00	695
3877737.00	673
3878426.00	689
3879121.00	695
3879796.00	675
3880467.00	671
3881162.00	695
3881847.00	685
3882509.00	662
3883182.00	673
3883867.00	685
3884546.00	679
3885206.00	660
3885868.00	662
3886549.00	681
3887226.00	677
3887886.00	660
3888555.00	669
3889256.00	701
3889957.00	701
3890640.00	683
3891329.00	689
3892038.00	709
3892733.00	695
3893408.00	675
3894099.00	691
3894794.00	695
3895479.00	685
3896150.00	671
3896833.00	683
3897524.00	691
3898197.00	673
3898868.00	671
3899563.00	695
3900256.00	693
3900929.00	673
3901608.00	679
3902311.00	703
3903006.00	695
3903679.00	673
3904362.00	683
3905053.00	691
3905734.00	681
3906394.00	660
3907073.00	679
3907766.00	693
3908449.00	683
3909124.00	675
3909813.00	689
3910518.00	705
3911205.00	687
3911874.00	669
3912559.00	685
3913252.00	693
3913937.00	685
3914618.00	681
3915323.00	705
3916035.00	712
3916722.00	687
3917401.00	679
3918100.00	699
3918793.00	693
3919462.00	669
3920133.00	671
3920822.00	689
3921505.00	683
3922171.00	666
3922856.00	685
3923551.00	695
3924230.00	679
3924909.00	679
3925618.00	709
3926321.00	703
3927002.00	681
3927685.00	683
3928384.00	699
3929073.00	689
3929742.00	669
3930421.00	679
3931100.00	679
3931758.00	658
3932406.00	648
3933068.00	662
3933739.00	671
3934403.00	664
3935045.00	642
3935714.00	669
3936397.00	683
3937078.00	681
3937746.00	668
3938435.00	689
3939149.00	714
3939852.00	703
3940537.00	685
3941232.00	695
3941942.00	710
3942635.00	693
3943304.00	669
3943983.00	679
3944674.00	691
3945349.00	675
3946013.00	664
3946698.00	685
3947377.00	679
3948037.00	660
3948689.00	652
3949349.00	660
3950007.00	658
3950649.00	642
3951260.00	611
3951892.00	632
3952517.00	625
3953132.00	615
3953733.00	601
3954328.00	595
3954912.00	584
3955496.00	584
3956089.00	593
3956708.00	619
3957338.00	630
3957955.00	617
3958583.00	628
3959235.00	652
3959908.00	673
3960595.00	687
3961266.00	671
3961935.00	669
3962626.00	691
3963342.00	716
3964052.00	710
3964733.00	681
3965422.00	689
3966142.00	720
3966864.00	722
3967565.00	701
3968254.00	689
3968980.00	726
3969710.00	730
3970409.00	699
3971114.00	705
3971860.00	746
3972596.00	736
3973299.00	703
3974006.00	707
3974740.00	734
3975454.00	714
3976137.00	683
3976828.00	691
3977533.00	705
3978226.00	693
3978895.00	669
3979582.00	687
3980281.00	699
3980972.00	691
3981657.00	685
3982377.00	720
3983113.00	736
3983831.00	718
3984538.00	707
3985276.00	738
3986008.00	732
3986703.00	695
3987396.00	693
3988093.00	697
3988782.00	689
3989444.00	662
3990127.00	683
3990810.00	683
3991483.00	673
3992149.00	666
3992828.00	679
3993505.00	677
3994169.00	664
3994838.00	669
3995533.00	695
3996238.00	705
3996923.00	685
3997618.00	695
3998328.00	710
3999025.00	697
3999704.00	679
4000397.00	693
4001100.00	703
4001795.00	695
4002466.00	671
4003153.00	687
4003862.00	709
4004582.00	720
4005285.00	703
4005974.00	689
4006679.00	705
4007397.00	718
4008094.00	697
4008767.00	673
4009452.00	685
4010172.00	720
4010904.00	732
4011603.00	699
4012292.00	689
4013010.00	718
4013730.00	720
4014425.00	695
4015108.00	683
4015818.00	710
4016536.00	718
4017235.00	699
4017916.00	681
4018619.00	703
4019345.00	726
4020055.00	710
4020738.00	683
4021439.00	701
4022149.00	710
4022848.00	699
4023529.00	681
4024232.00	703
4024966.00	734
4025692.00	726
4026389.00	697
4027107.00	718
4027849.00	742
4028579.00	730
4029278.00	699
4029988.00	710
4030722.00	734
4031452.00	730
4032143.00	691
4032842.00	699
4033562.00	720
4034276.00	714
4034963.00	687
4035654.00	691
4036355.00	701
4037054.00	699
4037733.00	679
4038397.00	664
4039059.00	662
4039727.00	668
4040389.00	662
4041060.00	671
4041763.00	703
4042462.00	699
4043128.00	666
4043776.00	648
4044412.00	636
4045066.00	654
4045730.00	664
4046382.00	652
4047048.00	666
4047741.00	693
4048440.00	699
4049127.00	687
4049822.00	695
4050560.00	738
4051298.00	738
4052008.00	710
4052717.00	709
4053443.00	726
4054155.00	712
4054842.00	687
4055539.00	697
4056249.00	710
4056948.00	699
4057629.00	681
4058339.00	710
4059055.00	716
4059748.00	693
4060439.00	691
4061155.00	716
4061860.00	705
4062539.00	679
4063228.00	689
4063925.00	697
4064618.00	693
4065270.00	652
4065912.00	642
4066556.00	644
4067210.00	654
4067854.00	644
4068475.00	621
4069096.00	621
4069693.00	597
4070284.00	591
4070877.00	593
4071470.00	593
4072071.00	601
4072666.00	595
4073257.00	591
4073850.00	593
4074457.00	607
4075084.00	627
4075718.00	634
4076348.00	630
4076986.00	638
4077636.00	650
4078300.00	664
4079042.00	742
4079860.00	818
4080674.00	814
4081470.00	796
4082249.00	779
4083004.00	755
4083720.00	716
4084413.00	693
4085069.00	656
4085723.00	654
4086394.00	671
4087083.00	689
4087770.00	687
4088428.00	658
4089111.00	683
4089773.00	662
4090460.00	687
4091198.00	738
4091992.00	794
4092771.00	779
4093538.00	767
4094319.00	781
4095108.00	789
4095850.00	742
4096566.00	716
4097243.00	677
4097905.00	662
4098545.00	640
4099173.00	628
4099790.00	617
4100393.00	603
4100990.00	597
4101581.00	591
4102178.00	597
4102775.00	597
4103374.00	599
4103979.00	605
4104580.00	601
4105185.00	605
4105804.00	619
4106472.00	668
4107163.00	691
4107860.00	697
4108561.00	701
4109250.00	689
4109863.00	613
4110548.00	685
4111192.00	644
4111819.00	627
4112430.00	611
4113027.00	597
4113618.00	591
4114203.00	585
4114796.00	593
4115407.00	611
4116028.00	621
4116655.00	627
4117264.00	609
4117891.00	627
4118537.00	646
4119240.00	703
4120046.00	806
4121005.00	959
4121794.00	789
4122571.00	777
4123303.00	732
4124023.00	720
4124712.00	689
4125395.00	683
4126057.00	662
4126734.00	677
4127446.00	712
4128155.00	709
4128856.00	701
4129549.00	693
4130265.00	716
4130987.00	722
4131701.00	714
4132382.00	681
4133063.00	681
4133754.00	691
4134441.00	687
4135105.00	664
4135802.00	697
4136518.00	716
4137252.00	734
4137972.00	720
4138714.00	742
4139464.00	750
4140225.00	761
4140969.00	744
4141711.00	742
4142447.00	736
4143150.00	703
4143857.00	707
4144564.00	707
4145263.00	699
4145931.00	668
4146616.00	685
4147297.00	681
4147970.00	673
4148630.00	660
4149319.00	689
4150014.00	695
4150695.00	681
4151378.00	683
4152083.00	705
4152786.00	703
4153471.00	685
4154164.00	693
4154865.00	701
4155570.00	705
4156245.00	675
4156930.00	685
4157609.00	679
4158275.00	666
4158944.00	669
4159625.00	681
4160312.00	687
4160981.00	669
4161672.00	691
4162359.00	687
4163034.00	675
4163715.00	681
4164404.00	689
4165103.00	699
4165782.00	679
4166473.00	691
4167154.00	681
4167820.00	666
4168488.00	668
4169157.00	669
4169834.00	677
4170496.00	662
4171177.00	681
4171862.00	685
4172528.00	666
4173209.00	681
4173896.00	687
4174581.00	685
4175252.00	671
4175945.00	693
4176626.00	681
4177288.00	662
4177959.00	671
4178638.00	679
4179315.00	677
4179981.00	666
4180674.00	693
4181361.00	687
4182038.00	677
4182717.00	679
4183408.00	691
4184097.00	689
4184765.00	668
4185446.00	681
4186121.00	675
4186783.00	662
4187451.00	668
4188130.00	679
4188815.00	685
4189484.00	669
4190171.00	687
4190864.00	693
4191551.00	687
4192232.00	681
4192935.00	703
4193626.00	691
4194297.00	671
4194976.00	679
4195649.00	673
4196324.00	675
4196982.00	658
4197659.00	677
4198336.00	677
4198998.00	662
4199679.00	681
4200376.00	697
4201077.00	701
4201760.00	683
4202467.00	707
4203166.00	699
4203845.00	679
4204522.00	677
4205213.00	691
4205902.00	689
4206568.00	666
4207245.00	677
4207924.00	679
4208588.00	664
4209257.00	669
4209938.00	681
4210627.00	689
4211300.00	673
4211995.00	695
4212688.00	693
4213365.00	677
4214060.00	695
4214753.00	693
4215436.00	683
4216121.00	685
4216816.00	695
4217509.00	693
4218190.00	681
4218891.00	701
4219580.00	689
4220251.00	671
4220922.00	671
4221605.00	683
4222298.00	693
4222975.00	677
4223680.00	705
4224381.00	701
4225066.00	685
4225759.00	693
4226456.00	697
4227151.00	695
4227828.00	677
4228513.00	685
4229200.00	687
4229864.00	664
4230545.00	681
4231224.00	679
4231892.00	668
4232563.00	671
4233246.00	683
4233945.00	699
4234624.00	679
4235329.00	705
4236030.00	701
4236721.00	691
4237406.00	685
4238101.00	695
4238794.00	693
4239460.00	666
4240139.00	679
4240812.00	673
4241474.00	662
4242136.00	662
4242809.00	673
4243486.00	677
4244148.00	662
4244831.00	683
4245510.00	679
4246181.00	671
4246852.00	671
4247537.00	685
4248222.00	685
4248888.00	666
4249575.00	687
4250260.00	685
4250933.00	673
4251612.00	679
4252305.00	693
4253000.00	695
4253673.00	673
4254362.00	689
4255039.00	677
4255703.00	664
4256363.00	660
4257040.00	677
4257719.00	679
4258377.00	658
4259054.00	677
4259739.00	685
4260418.00	679
4261099.00	681
4261796.00	697
4262497.00	701
4263178.00	681
4263873.00	695
4264558.00	685
4265227.00	669
4265900.00	673
4266587.00	687
4267274.00	687
4267936.00	662
4268611.00	675
4269280.00	669
4269936.00	656
4270604.00	668
4271283.00	679
4271972.00	689
4272643.00	671
4273334.00	691
4274025.00	691
4274704.00	679
4275383.00	679
4276070.00	687
4276751.00	681
4277409.00	658
4278088.00	679
4278773.00	685
4279452.00	679
4280118.00	666
4280803.00	685
4281490.00	687
4282154.00	664
4282835.00	681
4283520.00	685
4284191.00	671
4284855.00	664
4285532.00	677
4286205.00	673
4286855.00	650
4287511.00	656
4288182.00	671
4288851.00	669
4289503.00	652
4290172.00	669
4290845.00	673
4291503.00	658
4292161.00	658
4292848.00	687
4293527.00	679
4294189.00	662
4294837.00	648
4295495.00	658
4296149.00	654
4296781.00	632
4297408.00	627
4298031.00	623
4298665.00	634
4299311.00	646
4299945.00	634
4300599.00	654
4301274.00	675
4301955.00	681
4302630.00	675
4303294.00	664
4303971.00	677
4304666.00	695
4305355.00	689
4306024.00	669
4306697.00	673
4307394.00	697
4308081.00	687
4308752.00	671
4309429.00	677
4310145.00	716
4310863.00	718
4311568.00	705
4312273.00	705
4313005.00	732
4313731.00	726
4314426.00	695
4315115.00	689
4315814.00	699
4316509.00	695
4317177.00	668
4317876.00	699
4318573.00	697
4319266.00	693
4319959.00	693
4320687.00	728
4321405.00	718
4322104.00	699
4322813.00	709
4323549.00	736
4324279.00	730
4324991.00	712
4325701.00	710
4326419.00	718
4327128.00	709
4327807.00	679
4328498.00	691
4329197.00	699
4329884.00	687
4330569.00	685
4331281.00	712
4331991.00	710
4332680.00	689
4333361.00	681
4334068.00	707
4334765.00	697
4335444.00	679
4336121.00	677
4336818.00	697
4337527.00	709
4338222.00	695
4338911.00	689
4339631.00	720
4340340.00	709
4341031.00	691
4341728.00	697
4342442.00	714
4343158.00	716
4343851.00	693
4344567.00	716
4345279.00	712
4345974.00	695
4346669.00	695
4347372.00	703
4348077.00	705
4348764.00	687
4349467.00	703
4350176.00	709
4350877.00	701
4351558.00	681
4352239.00	681
4352953.00	714
4353669.00	716
4354368.00	699
4355088.00	720
4355806.00	718
4356511.00	705
4357204.00	693
4357913.00	709
4358616.00	703
4359291.00	675
4359976.00	685
4360665.00	689
4361350.00	685
4362018.00	668
4362701.00	683
4363394.00	693
4364081.00	687
4364756.00	675
4365463.00	707
4366166.00	703
4366851.00	685
4367532.00	681
4368231.00	699
4368920.00	689
4369584.00	664
4370271.00	687
4370954.00	683
4371625.00	671
4372304.00	679
4373005.00	701
4373704.00	699
4374383.00	679
4375076.00	693
4375777.00	701
4376464.00	687
4377147.00	683
4377846.00	699
4378541.00	695
4379220.00	679
4379891.00	671
4380580.00	689
4381271.00	691
4381939.00	668
4382618.00	679
4383311.00	693
4384006.00	695
4384679.00	673
4385370.00	691
4386061.00	691
4386744.00	683
4387410.00	666
4388101.00	691
4388784.00	683
4389442.00	658
4390098.00	656
4390773.00	675
4391441.00	668
4392087.00	646
4392737.00	650
4393401.00	664
4394065.00	664
4394705.00	640
4395363.00	658
4396036.00	673
4396707.00	671
4397365.00	658
4398046.00	681
4398751.00	705
4399450.00	699
4400127.00	677
4400795.00	668
4401480.00	685
4402159.00	679
4402813.00	654
4403494.00	681
4404183.00	689
4404870.00	687
4405559.00	689
4406268.00	709
4406975.00	707
4407654.00	679
4408351.00	697
4409028.00	677
4409694.00	666
4410348.00	654
4410996.00	648
4411624.00	628
4412262.00	638
4412902.00	640
4413527.00	625
4414144.00	617
4414755.00	611
4415395.00	640
4416037.00	642
4416658.00	621
4417285.00	627
4417910.00	625
4418546.00	636
4419180.00	634
4419801.00	621
4420439.00	638
4421093.00	654
4421739.00	646
4422371.00	632
4423013.00	642
4423661.00	648
4424315.00	654
4424959.00	644
4425593.00	634
4426266.00	673
4426961.00	695
4427662.00	701
4428337.00	675
4429034.00	697
4429752.00	718
4430468.00	716
4431147.00	679
4431840.00	693
4432537.00	697
4433230.00	693
4433896.00	666
4434575.00	679
4435258.00	683
4435927.00	669
4436591.00	664
4437296.00	705
4438018.00	722
4438723.00	705
4439433.00	710
4440175.00	742
4440917.00	742
4441627.00	710
4442359.00	732
4443083.00	724
4443797.00	714
4444506.00	709
4445236.00	730
4445950.00	714
4446635.00	685
4447330.00	695
4448017.00	687
4448690.00	673
4449348.00	658
4450053.00	705
4450767.00	714
4451450.00	683
4452149.00	699
4452865.00	716
4453574.00	709
4454259.00	685
4454966.00	707
4455663.00	697
4456331.00	668
4456999.00	668
4457698.00	699
4458395.00	697
4459066.00	671
4459745.00	679
4460454.00	709
4461163.00	709
4461848.00	685
4462545.00	697
4463254.00	709
4463959.00	705
4464644.00	685
4465337.00	693
4466049.00	712
4466763.00	714
4467475.00	712
4468223.00	748
4468984.00	761
4469726.00	742
4470446.00	720
4471188.00	742
4471920.00	732
4472623.00	703
4473318.00	695
4474021.00	703
4474724.00	703
4475403.00	679
4476113.00	710
4476853.00	740
4477605.00	752
4478347.00	742
4479106.00	759
4479856.00	750
4480582.00	726
4481298.00	716
4482016.00	718
4482723.00	707
4483404.00	681
4484103.00	699
4484802.00	699
4485493.00	691
4486182.00	689
4486914.00	732
4487644.00	730
4488368.00	724
4489090.00	722
4489824.00	734
4490548.00	724
4491247.00	699
4491948.00	701
4492649.00	701
4493332.00	683
4493996.00	664
4494677.00	681
4495364.00	687
4496049.00	685
4496742.00	693
4497478.00	736
4498230.00	752
4498956.00	726
4499688.00	732
4500455.00	767
4501208.00	753
4501926.00	718
4502644.00	718
4503368.00	724
4504080.00	712
4504761.00	681
4505440.00	679
4506135.00	695
4506832.00	697
4507509.00	677
4508180.00	671
4508898.00	718
4509616.00	718
4510317.00	701
4511033.00	716
4511771.00	738
4512499.00	728
4513200.00	701
4513930.00	730
4514658.00	728
4515361.00	703
4516064.00	703
4516798.00	734
4517540.00	742
4518270.00	730
4519039.00	769
4519798.00	759
4520540.00	742
4521243.00	703
4521959.00	716
4522664.00	705
4523349.00	685
4524030.00	681
4524746.00	716
4525474.00	728
4526188.00	714
4526932.00	744
4527676.00	744
4528414.00	738
4529152.00	738
4529919.00	767
4530667.00	748
4531385.00	718
4532105.00	720
4532843.00	738
4533569.00	726
4534262.00	693
4534963.00	701
4535699.00	736
4536431.00	732
4537138.00	707
4537825.00	687
4538475.00	650
4539123.00	648
4539775.00	652
4540443.00	668
4541150.00	707
4541862.00	712
4542549.00	687
4543256.00	707
4544004.00	748
4544763.00	759
4545518.00	755
4546260.00	742
4547017.00	757
4547767.00	750
4548489.00	722
4549176.00	687
4549886.00	710
4550593.00	707
4551266.00	673
4551943.00	677
4552655.00	712
4553364.00	709
4554051.00	687
4554730.00	679
4555425.00	695
4556110.00	685
4556776.00	666
4557412.00	636
4558040.00	628
4558692.00	652
4559342.00	650
4560010.00	668
4560711.00	701
4561455.00	744
4562214.00	759
4562960.00	746
4563713.00	753
4564478.00	765
4565222.00	744
4565934.00	712
4566662.00	728
4567408.00	746
4568136.00	728
4568833.00	697
4569532.00	699
4570274.00	742
4571012.00	738
4571728.00	716
4572468.00	740
4573216.00	748
4573954.00	738
4574664.00	710
4575402.00	738
4576148.00	746
4576880.00	732
4577583.00	703
4578295.00	712
4579023.00	728
4579753.00	730
4580456.00	703
4581182.00	726
4581906.00	724
4582616.00	710
4583299.00	683
4583972.00	673
4584665.00	693
4585381.00	716
4586078.00	697
4586771.00	693
4587491.00	720
4588221.00	730
4588933.00	712
4589630.00	697
4590346.00	716
4591047.00	701
4591724.00	677
4592376.00	652
4592987.00	611
4593610.00	623
4594303.00	693
4595055.00	752
4595781.00	726
4596470.00	689
4597124.00	654
4597762.00	638
4598398.00	636
4599050.00	652
4599710.00	660
4600376.00	666
4601044.00	668
4601692.00	648
4602332.00	640
4602982.00	650
4603644.00	662
4604292.00	648
4604920.00	628
4605543.00	623
4606158.00	615
4606759.00	601
4607352.00	593
4607951.00	599
4608562.00	611
4609189.00	627
4609833.00	644
4610471.00	638
4611101.00	630
4611735.00	634
4612379.00	644
4613033.00	654
4613689.00	656
4614349.00	660
4614997.00	648
4615639.00	642
4616269.00	630
4616907.00	638
4617547.00	640
4618189.00	642
4618835.00	646
4619471.00	636
4620096.00	625
4620726.00	630
4621343.00	617
4621950.00	607
4622551.00	601
4623158.00	607
4623773.00	615
4624400.00	627
4625036.00	636
4625666.00	630
4626300.00	634
4626934.00	634
4627572.00	638
4628200.00	628
4628848.00	648
4629510.00	662
4630189.00	679
4630886.00	697
4631577.00	691
4632241.00	664
4632912.00	671
4633597.00	685
4634276.00	679
4634883.00	607
4635668.00	785
4636369.00	701
4637037.00	668
4637679.00	642
4638304.00	625
4638911.00	607
4639510.00	599
4640099.00	589
4640679.00	580
4641259.00	580
4641835.00	576
4642405.00	570
4642969.00	564
4643531.00	562
4644093.00	562
4644649.00	556
4645205.00	556
4645757.00	552
4646305.00	548
4646857.00	552
4647425.00	568
4648022.00	597
4648633.00	611
4649260.00	627
4649918.00	658
4650593.00	675
4651272.00	679
4651947.00	675
4652607.00	660
4653241.00	634
4653864.00	623
4654471.00	607
4655062.00	591
4655653.00	591
4656256.00	603
4656902.00	646
4657609.00	707
4658298.00	689
4659012.00	714
4659748.00	736
4660570.00	822
4661493.00	923
4662485.00	992
4663356.00	871
4664209.00	853
4665039.00	830
4665853.00	814
4666618.00	765
4667375.00	757
4668136.00	761
4668913.00	777
4669668.00	755
4670404.00	736
4671136.00	732
4671884.00	748
4672643.00	759
4673371.00	728
4674083.00	712
4674790.00	707
4675522.00	732
4676272.00	750
4677004.00	732
4677730.00	726
4678437.00	707
4679155.00	718
4679897.00	742
4680631.00	734
4681349.00	718
4682073.00	724
4682826.00	753
4683564.00	738
4684261.00	697
4684938.00	677
4685617.00	679
4686310.00	693
4686985.00	675
4687639.00	654
4688273.00	634
4688903.00	630
4689514.00	611
4690123.00	609
4690722.00	599
4691311.00	589
4691889.00	578
4692471.00	582
4693043.00	572
4693609.00	566
4694191.00	582
4694831.00	640
4695555.00	724
4696484.00	929
4697364.00	880
4698201.00	837
4698990.00	789
4699779.00	789
4700534.00	755
4701278.00	744
4701983.00	705
4702676.00	693
4703365.00	689
4704097.00	732
4704852.00	755
4705566.00	714
4706251.00	685
4706965.00	714
4707664.00	699
4708322.00	658
4708952.00	630
4709604.00	652
4710240.00	636
4710876.00	636
4711522.00	646
4712180.00	658
4712828.00	648
4713476.00	648
4714110.00	634
4714731.00	621
4715363.00	632
4715995.00	632
4716649.00	654
4717381.00	732
4718156.00	775
4718960.00	804
4719766.00	806
4720568.00	802
4721337.00	769
4722094.00	757
4722816.00	722
4723528.00	712
4724215.00	687
4724931.00	716
4725727.00	796
4726512.00	785
4727267.00	755
4727960.00	693
4728670.00	710
4729382.00	712
4730067.00	685
4730738.00	671
4731404.00	666
4732068.00	664
4732734.00	666
4733403.00	669
4734067.00	664
4734723.00	656
4735375.00	652
4736017.00	642
4736651.00	634
4737268.00	617
4737893.00	625
4738533.00	640
4739197.00	664
4739853.00	656
4740501.00	648
4741149.00	648
4741787.00	638
4742433.00	646
4743091.00	658
4743753.00	662
4744432.00	679
4745125.00	693
4745830.00	705
4746531.00	701
4747263.00	732
4747972.00	709
4748655.00	683
4749326.00	671
4749999.00	673
4750663.00	664
4751321.00	658
4751963.00	642
4752603.00	640
4753235.00	632
4753867.00	632
4754562.00	695
4755335.00	773
4756061.00	726
4756777.00	716
4757474.00	697
4758227.00	753
4758996.00	769
4759722.00	726
4760491.00	769
4761203.00	712
4761882.00	679
4762530.00	648
4763180.00	650
4763810.00	630
4764431.00	621
4765048.00	617
4765678.00	630
4766353.00	675
4767065.00	712
4767774.00	709
4768494.00	720
4769206.00	712
4769954.00	748
4770715.00	761
4771437.00	722
4772155.00	718
4772860.00	705
4773584.00	724
4774296.00	712
4774989.00	693
4775670.00	681
4776353.00	683
4777063.00	710
4777756.00	693
4778453.00	697
4779142.00	689
4779851.00	709
4780567.00	716
4781256.00	689
4781943.00	687
4782618.00	675
4783321.00	703
4784067.00	746
4784801.00	734
4785525.00	724
4786247.00	722
4786993.00	746
4787719.00	726
4788449.00	730
4789152.00	703
4789833.00	681
4790493.00	660
4791135.00	642
4791763.00	628
4792378.00	615
4792987.00	609
4793602.00	615
4794209.00	607
4794810.00	601
4795407.00	597
4796000.00	593
4796589.00	589
4797173.00	584
4797757.00	584
4798339.00	582
4798946.00	607
4799586.00	640
4800330.00	744
4801271.00	941
4802263.00	992
4803270.00	1007
4804250.00	980
4805179.00	929
4806057.00	878
4806879.00	822
4807668.00	789
4808437.00	769
4809167.00	730
4809901.00	734
4810602.00	701
4811283.00	681
4812054.00	771
4812831.00	777
4813624.00	793
4814426.00	802
4815185.00	759
4815968.00	783
4816729.00	761
4817469.00	740
4818228.00	759
4818968.00	740
4819714.00	746
4820440.00	726
4821158.00	718
4821878.00	720
4822600.00	722
4823326.00	726
4824031.00	705
4824747.00	716
4825450.00	703
4826153.00	703
4826848.00	695
4827576.00	728
4828302.00	726
4829022.00	720
4829750.00	728
4830476.00	726
4831214.00	738
4831938.00	724
4832650.00	712
4833366.00	716
4834086.00	720
4834828.00	742
4835552.00	724
4836288.00	736
4837016.00	728
4837760.00	744
4838496.00	736
4839222.00	726
4839956.00	734
4840666.00	710
4841396.00	730
4842112.00	716
4842832.00	720
4843554.00	722
4844257.00	703
4844956.00	699
4845655.00	699
4846348.00	693
4847047.00	699
4847757.00	710
4848467.00	710
4849197.00	730
4849917.00	720
4850645.00	728
4851357.00	712
4852064.00	707
4852765.00	701
4853458.00	693
4854155.00	697
4854836.00	681
4855523.00	687
4856210.00	687
4856907.00	697
4857594.00	687
4858295.00	701
4858998.00	703
4859708.00	710
4860405.00	697
4861115.00	710
4861816.00	701
4862513.00	697
4863206.00	693
4863897.00	691
4864590.00	693
4865271.00	681
4865964.00	693
4866667.00	703
4867383.00	716
4868082.00	699
4868767.00	685
4869450.00	683
4870123.00	673
4870794.00	671
4871467.00	673
4872135.00	668
4872783.00	648
4873425.00	642
4874053.00	628
4874674.00	621
4875295.00	621
4875927.00	632
4876579.00	652
4877247.00	668
4877924.00	677
4878621.00	697
4879320.00	699
4880027.00	707
4880722.00	695
4881417.00	695
4882098.00	681
4882773.00	675
4883441.00	668
4884118.00	677
4884793.00	675
4885482.00	689
4886189.00	707
4886886.00	697
4887583.00	697
4888284.00	701
4888991.00	707
4889696.00	705
4890385.00	689
4891082.00	697
4891775.00	693
4892478.00	703
4893159.00	681
4893866.00	707
4894569.00	703
4895256.00	687
4895957.00	701
4896666.00	709
4897373.00	707
4898062.00	689
4898759.00	697
4899448.00	689
4900139.00	691
4900818.00	679
4901523.00	705
4902226.00	703
4902919.00	693
4903614.00	695
4904324.00	710
4905048.00	724
4905747.00	699
4906471.00	724
4907183.00	712
4907868.00	685
4908555.00	687
4909240.00	685
4909929.00	689
4910606.00	677
4911301.00	695
4911994.00	693
4912687.00	693
4913378.00	691
4914092.00	714
4914808.00	716
4915517.00	709
4916226.00	709
4916940.00	714
4917652.00	712
4918341.00	689
4919040.00	699
4919741.00	701
4920446.00	705
4921133.00	687
4921849.00	716
4922556.00	707
4923266.00	710
4923969.00	703
4924683.00	714
4925397.00	714
4926106.00	709
4926830.00	724
4927544.00	714
4928254.00	710
4928947.00	693
4929657.00	710
4930356.00	699
4931047.00	691
4931730.00	683
4932421.00	691
4933122.00	701
4933803.00	681
4934490.00	687
4935185.00	695
4935888.00	703
4936573.00	685
4937280.00	707
4937989.00	709
4938678.00	689
4939375.00	697
4940082.00	707
4940792.00	710
4941487.00	695
4942196.00	709
4942901.00	705
4943604.00	703
4944299.00	695
4945017.00	718
4945737.00	720
4946442.00	705
4947172.00	730
4947896.00	724
4948622.00	726
4949348.00	726
4950082.00	734
4950814.00	732
4951519.00	705
4952226.00	707
4952935.00	709
4953618.00	683
4954293.00	675
4954976.00	683
4955653.00	677
4956309.00	656
4956955.00	646
4957589.00	634
4958225.00	636
4958859.00	634
4959489.00	630
4960108.00	619
4960733.00	625
4961371.00	638
4962037.00	666
4962726.00	689
4963452.00	726
4964182.00	730
4964902.00	720
4965607.00	705
4966323.00	716
4967041.00	718
4967744.00	703
4968433.00	689
4969134.00	701
4969862.00	728
4970602.00	740
4971334.00	732
4972044.00	710
4972753.00	709
4973485.00	732
4974225.00	740
4974945.00	720
4975657.00	712
4976375.00	718
4977117.00	742
4977833.00	716
4978551.00	718
4979281.00	730
4980064.00	783
4980808.00	744
4981552.00	744
4982268.00	716
4982984.00	716
4983689.00	705
4984366.00	677
4985037.00	671
4985726.00	689
4986413.00	687
4987098.00	685
4987791.00	693
4988505.00	714
4989229.00	724
4989941.00	712
4990681.00	740
4991419.00	738
4992151.00	732
4992869.00	718
4993609.00	740
4994343.00	734
4995065.00	722
4995785.00	720
4996515.00	730
4997239.00	724
4997936.00	697
4998607.00	671
4999278.00	671
4999940.00	662
5000594.00	654
5001246.00	652
5001902.00	656
5002566.00	664
5003234.00	668
5003903.00	669
5004596.00	693
5005291.00	695
5006001.00	710
5006719.00	718
5007445.00	726
5008185.00	740
5008903.00	718
5009637.00	734
5010357.00	720
5011067.00	710
5011770.00	703
5012492.00	722
5013214.00	722
5013938.00	724
5014668.00	730
5015398.00	730
5016132.00	734
5016860.00	728
5017604.00	744
5018334.00	730
5019046.00	712
5019755.00	709
5020477.00	722
5021193.00	716
5021890.00	697
5022595.00	705
5023300.00	705
5024010.00	710
5024707.00	697
5025427.00	720
5026139.00	712
5026844.00	705
5027541.00	697
5028255.00	714
5028973.00	718
5029672.00	699
5030375.00	703
5031093.00	718
5031807.00	714
5032508.00	701
5033222.00	714
5033942.00	720
5034645.00	703
5035346.00	701
5036055.00	709
5036746.00	691
5037410.00	664
5038064.00	654
5038722.00	658
5039368.00	646
5040000.00	632
5040625.00	625
5041248.00	623
5041867.00	619
5042501.00	634
5043157.00	656
5043844.00	687
5044541.00	697
5045242.00	701
5045943.00	701
5046661.00	718
5047405.00	744
5048153.00	748
5048889.00	736
5049615.00	726
5050347.00	732
5051073.00	726
5051785.00	712
5052494.00	709
5053232.00	738
5053966.00	734
5054682.00	716
5055394.00	712
5056124.00	730
5056854.00	730
5057566.00	712
5058282.00	716
5059012.00	730
5059736.00	724
5060446.00	710
5061172.00	726
5061935.00	763
5062683.00	748
5063419.00	736
5064141.00	722
5064865.00	724
5065581.00	716
5066282.00	701
5066987.00	705
5067699.00	712
5068404.00	705
5069101.00	697
5069802.00	701
5070507.00	705
5071194.00	687
5071891.00	697
5072588.00	697
5073279.00	691
5073966.00	687
5074675.00	709
5075403.00	728
5076115.00	712
5076835.00	720
5077557.00	722
5078285.00	728
5078999.00	714
5079715.00	716
5080433.00	718
5081126.00	693
5081825.00	699
5082530.00	705
5083215.00	685
5083900.00	685
5084607.00	707
5085321.00	714
5086018.00	697
5086730.00	712
5087435.00	705
5088116.00	681
5088776.00	660
5089447.00	671
5090097.00	650
5090733.00	636
5091369.00	636
5091997.00	628
5092653.00	656
5093358.00	705
5094080.00	722
5094794.00	714
5095503.00	709
5096235.00	732
5096949.00	714
5097650.00	701
5098347.00	697
5099056.00	709
5099751.00	695
5100432.00	681
5101109.00	677
5101821.00	712
5102526.00	705
5103221.00	695
5103920.00	699
5104652.00	732
5105380.00	728
5106090.00	710
5106793.00	703
5107496.00	703
5108193.00	697
5108864.00	671
5109551.00	687
5110236.00	685
5110915.00	679
5111586.00	671
5112293.00	707
5113011.00	718
5113735.00	724
5114459.00	724
5115207.00	748
5115960.00	753
5116702.00	742
5117438.00	736
5118160.00	722
5118806.00	646
5119454.00	648
5120102.00	648
5120756.00	654
5121404.00	648
5122066.00	662
5122757.00	691
5123466.00	709
5124173.00	707
5124882.00	709
5125616.00	734
5126368.00	752
5127108.00	740
5127840.00	732
5128574.00	734
5129320.00	746
5130064.00	744
5130802.00	738
5131565.00	763
5132309.00	744
5133039.00	730
5133783.00	744
5134536.00	753
5135291.00	755
5136027.00	736
5136761.00	734
5137501.00	740
5138215.00	714
5138941.00	726
5139671.00	730
5140409.00	738
5141147.00	738
5141900.00	753
5142644.00	744
5143364.00	720
5144090.00	726
5144812.00	722
5145517.00	705
5146233.00	716
5146947.00	714
5147650.00	703
5148339.00	689
5149046.00	707
5149751.00	705
5150430.00	679
5151133.00	703
5151840.00	707
5152543.00	703
5153263.00	720
5153991.00	728
5154717.00	726
5155426.00	709
5156152.00	726
5156868.00	716
5157557.00	689
5158234.00	677
5158917.00	683
5159612.00	695
5160299.00	687
5160988.00	689
5161691.00	703
5162398.00	707
5163099.00	701
5163811.00	712
5164527.00	716
5165214.00	687
5165905.00	691
5166602.00	697
5167287.00	685
5167986.00	699
5168679.00	693
5169358.00	679
5170059.00	701
5170773.00	714
5171485.00	712
5172195.00	710
5172925.00	730
5173663.00	738
5174368.00	705
5175092.00	724
5175806.00	714
5176513.00	707
5177216.00	703
5177928.00	712
5178648.00	720
5179355.00	707
5180089.00	734
5180827.00	738
5181557.00	730
5182293.00	736
5183011.00	718
5183718.00	707
5184419.00	701
5185135.00	716
5185853.00	718
5186556.00	703
5187288.00	732
5188014.00	726
5188726.00	712
5189425.00	699
5190114.00	689
5190805.00	691
5191510.00	705
5192209.00	699
5192890.00	681
5193569.00	679
5194264.00	695
5194969.00	705
5195652.00	683
5196361.00	709
5197073.00	712
5197774.00	701
5198494.00	720
5199214.00	720
5199930.00	716
5200640.00	710
5201350.00	710
5202059.00	709
5202760.00	701
5203472.00	712
5204192.00	720
5204893.00	701
5205605.00	712
5206321.00	716
5207018.00	697
5207725.00	707
5208439.00	714
5209151.00	712
5209838.00	687
5210537.00	699
5211236.00	699
5211911.00	675
5212602.00	691
5213311.00	709
5214029.00	718
5214745.00	716
5215489.00	744
5216231.00	742
5216951.00	720
5217693.00	742
5218415.00	722
5219112.00	697
5219799.00	687
5220492.00	693
5221179.00	687
5221837.00	658
5222518.00	681
5223201.00	683
5223876.00	675
5224569.00	693
5225279.00	710
5226003.00	724
5226717.00	714
5227455.00	738
5228187.00	732
5228897.00	710
5229582.00	685
5230267.00	685
5230956.00	689
5231625.00	669
5232287.00	662
5232953.00	666
5233630.00	677
5234299.00	669
5234943.00	644
5235568.00	625
5236185.00	617
5236815.00	630
5237467.00	652
5238138.00	671
5238815.00	677
5239545.00	730
5240291.00	746
5241041.00	750
5241796.00	755
5242549.00	753
5243287.00	738
5243992.00	705
5244708.00	716
5245420.00	712
5246099.00	679
5246800.00	701
5247522.00	722
5248268.00	746
5249002.00	734
5249740.00	738
5250517.00	777
5251286.00	769
5252047.00	761
5252820.00	773
5253585.00	765
5254319.00	734
5255053.00	734
5255779.00	726
5256484.00	705
5257171.00	687
5257856.00	685
5258537.00	681
5259193.00	656
5259894.00	701
5260612.00	718
5261326.00	714
5262040.00	714
5262784.00	744
5263547.00	763
5264279.00	732
5265017.00	738
5265751.00	734
5266456.00	705
5267153.00	697
5267848.00	695
5268555.00	707
5269289.00	734
5270037.00	748
5270775.00	738
5271517.00	742
5272249.00	732
5272954.00	705
5273643.00	689
5274311.00	668
5275006.00	695
5275699.00	693
5276376.00	677
5277055.00	679
5277758.00	703
5278459.00	701
5279142.00	683
5279827.00	685
5280522.00	695
5281219.00	697
5281924.00	705
5282631.00	707
5283336.00	705
5284037.00	701
5284790.00	753
5285542.00	752
5286299.00	757
5287060.00	761
5287810.00	750
5288544.00	734
5289276.00	732
5290006.00	730
5290730.00	724
5291433.00	703
5292175.00	742
5292913.00	738
5293637.00	724
5294377.00	740
5295113.00	736
5295859.00	746
5296589.00	730
5297335.00	746
5298077.00	742
5298805.00	728
5299539.00	734
5300281.00	742
5301029.00	748
5301767.00	738
5302522.00	755
5303274.00	752
5304010.00	736
5304756.00	746
5305502.00	746
5306240.00	738
5306960.00	720
5307696.00	736
5308434.00	738
5309156.00	722
5309902.00	746
5310646.00	744
5311386.00	740
5312114.00	728
5312860.00	746
5313608.00	748
5314317.00	709
5315029.00	712
5315745.00	716
5316457.00	712
5317144.00	687
5317837.00	693
5318559.00	722
5319281.00	722
5319995.00	714
5320727.00	732
5321479.00	752
5322232.00	753
5322974.00	742
5323737.00	763
5324487.00	750
5325205.00	718
5325921.00	716
5326649.00	728
5327375.00	726
5328076.00	701
5328792.00	716
5329524.00	732
5330250.00	726
5330976.00	726
5331716.00	740
5332458.00	742
5333180.00	722
5333918.00	738
5334652.00	734
5335364.00	712
5336086.00	722
5336834.00	748
5337572.00	738
5338277.00	705
5338974.00	697
5339684.00	710
5340383.00	699
5341060.00	677
5341743.00	683
5342452.00	709
5343170.00	718
5343875.00	705
5344603.00	728
5345329.00	726
5346047.00	718
5346759.00	712
5347495.00	736
5348221.00	726
5348931.00	710
5349626.00	695
5350346.00	720
5351070.00	724
5351773.00	703
5352472.00	699
5353186.00	714
5353904.00	718
5354593.00	689
5355278.00	685
5355988.00	710
5356700.00	712
5357410.00	710
5358120.00	710
5358829.00	709
5359563.00	734
5360305.00	742
5361025.00	720
5361755.00	730
5362485.00	730
5363192.00	707
5363873.00	681
5364576.00	703
5365279.00	703
5365968.00	689
5366661.00	693
5367373.00	712
5368093.00	720
5368802.00	709
5369534.00	732
5370278.00	744
5371000.00	722
5371742.00	742
5372482.00	740
5373202.00	720
5373907.00	705
5374625.00	718
5375339.00	714
5376026.00	687
5376709.00	683
5377404.00	695
5378101.00	697
5378778.00	677
5379473.00	695
5380176.00	703
5380879.00	703
5381570.00	691
5382286.00	716
5383004.00	718
5383707.00	703
5384412.00	705
5385138.00	726
5385870.00	732
5386596.00	726
5387318.00	722
5388046.00	728
5388780.00	734
5389490.00	710
5390218.00	728
5390942.00	724
5391654.00	712
5392355.00	701
5393065.00	710
5393777.00	712
5394474.00	697
5395196.00	722
5395912.00	716
5396609.00	697
5397302.00	693
5398014.00	712
5398724.00	710
5399409.00	685
5400110.00	701
5400809.00	699
5401490.00	681
5402161.00	671
5402862.00	701
5403557.00	695
5404225.00	668
5404894.00	669
5405565.00	671
5406213.00	648
5406871.00	658
5407548.00	677
5408217.00	669
5408881.00	664
5409578.00	697
5410283.00	705
5410958.00	675
5411622.00	664
5412262.00	640
5412892.00	630
5413528.00	636
5414158.00	630
5414798.00	640
5415471.00	673
5416160.00	689
5416851.00	691
5417534.00	683
5418246.00	712
5418974.00	728
5419686.00	712
5420369.00	683
5421058.00	689
5421761.00	703
5422458.00	697
5423122.00	664
5423791.00	669
5424494.00	703
5425208.00	714
5425899.00	691
5426596.00	697
5427338.00	742
5428072.00	734
5428784.00	712
5429489.00	705
5430217.00	728
5430935.00	718
5431622.00	687
5432311.00	689
5433035.00	724
5433767.00	732
5434468.00	701
5435177.00	709
5435934.00	757
5436686.00	752
5437408.00	722
5438132.00	724
5438876.00	744
5439618.00	742
5440325.00	707
5441061.00	736
5441799.00	738
5442523.00	724
5443235.00	712
5443975.00	740
5444732.00	757
5445460.00	728
5446213.00	753
5446966.00	753
5447716.00	750
5448458.00	742
5449213.00	755
5449963.00	750
5450679.00	716
5451417.00	738
5452147.00	730
5452861.00	714
5453573.00	712
5454307.00	734
5455039.00	732
5455749.00	710
5456469.00	720
5457183.00	714
5457882.00	699
5458577.00	695
5459299.00	722
5460021.00	722
5460722.00	701
5461431.00	709
5462159.00	728
5462875.00	716
5463564.00	689
5464273.00	709
5464982.00	709
5465667.00	685
5466360.00	693
5467086.00	726
5467818.00	732
5468530.00	712
5469272.00	742
5470012.00	740
5470738.00	726
5471450.00	712
5472180.00	730
5472902.00	722
5473603.00	701
5474304.00	701
5475020.00	716
5475738.00	718
5476439.00	701
5477161.00	722
5477881.00	720
5478584.00	703
5479285.00	701
5480013.00	728
5480733.00	720
5481430.00	697
5482154.00	724
5482870.00	716
5483555.00	685
5484267.00	712
5484995.00	728
5485705.00	710
5486396.00	691
5487116.00	720
5487852.00	736
5488566.00	714
5489286.00	720
5490036.00	750
5490793.00	757
5491521.00	728
5492288.00	767
5493059.00	771
5493801.00	742
5494519.00	718
5495241.00	722
5495955.00	714
5496644.00	689
5497319.00	675
5498029.00	710
5498743.00	714
5499428.00	685
5500115.00	687
5500833.00	718
5501555.00	722
5502252.00	697
5502955.00	703
5503691.00	736
5504423.00	732
5505128.00	705
5505838.00	710
5506562.00	724
5507294.00	732
5507993.00	699
5508703.00	710
5509435.00	732
5510163.00	728
5510866.00	703
5511567.00	701
5512281.00	714
5512986.00	705
5513638.00	652
5514270.00	632
5514898.00	628
5515542.00	644
5516204.00	662
5516883.00	679
5517549.00	666
5518228.00	679
5518931.00	703
5519626.00	695
5520331.00	705
5521049.00	718
5521756.00	707
5522447.00	691
5523156.00	709
5523861.00	705
5524562.00	701
5525241.00	679
5525938.00	697
5526652.00	714
5527357.00	705
5528040.00	683
5528721.00	681
5529402.00	681
5530042.00	640
5530688.00	646
5531354.00	666
5532033.00	679
5532704.00	671
5533362.00	658
5534031.00	669
5534693.00	662
5535329.00	636
5535956.00	627
5536561.00	605
5537162.00	601
5537751.00	589
5538338.00	587
5538931.00	593
5539530.00	599
5540139.00	609
5540744.00	605
5541361.00	617
5541986.00	625
5542609.00	623
5543230.00	621
5543851.00	621
5544474.00	623
5545095.00	621
5545712.00	617
5546335.00	623
5546952.00	617
5547573.00	621
5548213.00	640
5548820.00	607
5549437.00	617
5550083.00	646
5550725.00	642
5551346.00	621
5551976.00	630
5552587.00	611
5553245.00	658
5553940.00	695
5554658.00	718
5555382.00	724
5556106.00	724
5556846.00	740
5557613.00	767
5558392.00	779
5559132.00	740
5559850.00	718
5560562.00	712
5561296.00	734
5562026.00	730
5562738.00	712
5563429.00	691
5564106.00	677
5564797.00	691
5565470.00	673
5566116.00	646
5566760.00	644
5567388.00	628
5568063.00	675
5568783.00	720
5569519.00	736
5570251.00	732
5570958.00	707
5571645.00	687
5572318.00	673
5572974.00	656
5573628.00	654
5574280.00	652
5574914.00	634
5575544.00	630
5576145.00	601
5576760.00	615
5577398.00	638
5578087.00	689
5578829.00	742
5579625.00	796
5580513.00	888
5581417.00	904
5582338.00	921
5583256.00	918
5584107.00	851
5584903.00	796
5585660.00	757
5586394.00	734
5587104.00	710
5587795.00	691
5588484.00	689
5589140.00	656
5589784.00	644
5590452.00	668
5591131.00	679
5591824.00	693
5592507.00	683
5593217.00	710
5593920.00	703
5594615.00	695
5595310.00	695
5596005.00	695
5596692.00	687
5597371.00	679
5598068.00	697
5598769.00	701
5599448.00	679
5600139.00	691
5600820.00	681
5601474.00	654
5602124.00	650
5602786.00	662
5603461.00	675
5604115.00	654
5604771.00	656
5605431.00	660
5606102.00	671
5606754.00	652
5607404.00	650
5608050.00	646
5608675.00	625
5609313.00	638
5609963.00	650
5610603.00	640
5611233.00	630
5611856.00	623
5612457.00	601
5613062.00	605
5613657.00	595
5614272.00	615
5614889.00	617
5615517.00	628
5616159.00	642
5616801.00	642
5617447.00	646
5618093.00	646
5618745.00	652
5619385.00	640
5620021.00	636
5620649.00	628
5621268.00	619
5621881.00	613
5622500.00	619
5623115.00	615
5623712.00	597
5624292.00	580
5624866.00	574
5625446.00	580
5626063.00	617
5626690.00	627
5627197.00	507
5627808.00	611
5628403.00	595
5628985.00	582
5629549.00	564
5630117.00	568
5630681.00	564
5631249.00	568
5631803.00	554
5632351.00	548
5632897.00	546
5633443.00	546
5633986.00	543
5634527.00	541
5635073.00	546
5635619.00	546
5636165.00	546
5636708.00	543
5637251.00	543
5637795.00	544
5638336.00	541
5638894.00	558
5639446.00	552
5640000.00	554
5640552.00	552
5641106.00	554
5641662.00	556
5642242.00	580
5642900.00	658
5643607.00	707
5644317.00	710
5645000.00	683
5645650.00	650
5646294.00	644
5646940.00	646
5647565.00	625
5648184.00	619
5648799.00	615
5649396.00	597
5649989.00	593
5650569.00	580
5651143.00	574
5651709.00	566
5652275.00	566
5652841.00	566
5653413.00	572
5654018.00	605
5654873.00	855
5655769.00	896
5656569.00	800
5657254.00	685
5657910.00	656
5658550.00	640
5659165.00	615
5659788.00	623
5660393.00	605
5660910.00	517
5661476.00	566
5662173.00	697
5662717.00	544
5663265.00	548
5663954.00	689
5664618.00	664
5665245.00	627
5665860.00	615
5666469.00	609
5667086.00	617
5667687.00	601
5668282.00	595
5668866.00	584
5669444.00	578
5670020.00	576
5670598.00	578
5671195.00	597
5671804.00	609
5672403.00	599
5672988.00	585
5673573.00	585
5674149.00	576
5674719.00	570
5675283.00	564
5675845.00	562
5676389.00	544
5676945.00	556
5677499.00	554
5678051.00	552
5678605.00	554
5679155.00	550
