"Time" "IBI"
"1" 552 564
"2" 1116 564
"3" 1701 585
"4" 2337 636
"5" 3042 705
"6" 3768 726
"7" 4469 701
"8" 5176 707
"9" 5910 734
"10" 6605 695
"11" 7294 689
"12" 7971 677
"13" 8639 667.999999999999
"14" 9260 621
"15" 9883 623.000000000001
"16" 10531 648
"17" 11210 679
"18" 11903 693
"19" 12610 706.999999999999
"20" 13348 738.000000000001
"21" 14057 709
"22" 14777 720.000000000001
"23" 15517 739.999999999998
"24" 16210 693.000000000001
"25" 16901 690.999999999999
"26" 17582 681.000000000001
"27" 18255 672.999999999998
"28" 18926 671.000000000003
"29" 19597 670.999999999999
"30" 20276 678.999999999999
"31" 20932 656.000000000002
"32" 21586 654
"33" 22236 649.999999999999
"34" 22904 667.999999999999
"35" 23562 658.000000000001
"36" 24198 635.999999999999
"37" 24821 623.000000000001
"38" 25436 614.999999999998
"39" 26055 619
"40" 26685 630.000000000003
"41" 27358 672.999999999998
"42" 28076 718
"43" 28777 701
"44" 29505 727.999999999998
"45" 30239 734.000000000002
"46" 30940 701
"47" 31635 695
"48" 32351 715.999999999997
"49" 33046 695
"50" 33739 692.999999999998
"51" 34432 693.000000000005
"52" 35101 668.999999999997
"53" 35774 673.000000000002
"54" 36451 677
"55" 37132 680.999999999997
"56" 37819 687.000000000005
"57" 38514 695
"58" 39226 711.999999999996
"59" 39933 707.000000000001
"60" 40638 704.999999999998
"61" 41356 718.000000000004
"62" 42063 707.000000000001
"63" 42762 698.999999999998
"64" 43459 697.000000000003
"65" 44166 707.000000000001
"66" 44853 686.999999999998
"67" 45526 673.000000000002
"68" 46201 674.999999999997
"69" 46861 660.000000000004
"70" 47509 647.999999999996
"71" 48171 661.999999999999
"72" 48850 679.000000000002
"73" 49523 673.000000000002
"74" 50191 667.999999999999
"75" 50880 689
"76" 51567 686.999999999998
"77" 52233 666.000000000004
"78" 52916 683
"79" 53591 674.999999999997
"80" 54260 668.999999999997
"81" 54953 693.000000000005
"82" 55634 680.999999999997
"83" 56307 673.000000000002
"84" 56996 689
"85" 57673 677
"86" 58313 640.000000000001
"87" 58961 647.999999999996
"88" 59621 660.000000000004
"89" 60289 667.999999999999
"90" 61015 725.999999999999
"91" 61733 718.000000000004
"92" 62447 713.999999999999
"93" 63159 711.999999999996
"94" 63856 697.000000000003
"95" 64535 678.999999999995
"96" 65201 666.000000000011
"97" 65896 694.999999999993
"98" 66589 692.999999999998
"99" 67268 679.000000000002
"100" 67949 680.999999999997
"101" 68617 668.000000000006
"102" 69273 655.999999999992
"103" 69901 628
"104" 70518 617.000000000004
"105" 71125 606.999999999999
"106" 71750 625
"107" 72384 634
"108" 73020 635.999999999996
"109" 73678 658.000000000001
"110" 74361 683.000000000007
"111" 75062 700.999999999993
"112" 75763 701.000000000008
"113" 76487 723.99999999999
"114" 77197 710.000000000008
"115" 77906 709.000000000003
"116" 78616 709.999999999994
"117" 79340 724.000000000004
"118" 80049 709.000000000003
"119" 80758 708.999999999989
"120" 81465 707.000000000008
"121" 82193 727.999999999994
"122" 82905 712.000000000003
"123" 83610 704.999999999998
"124" 84330 719.999999999999
"125" 85060 730.000000000004
"126" 85772 712.000000000003
"127" 86486 713.999999999999
"128" 87232 745.999999999995
"129" 87958 725.999999999999
"130" 88676 718.000000000004
"131" 89410 733.999999999995
"132" 90156 746.000000000009
"133" 90900 744
"134" 91628 727.999999999994
"135" 92380 751.999999999995
"136" 93102 722.000000000008
"137" 93795 692.999999999998
"138" 94507 712.000000000003
"139" 95219 712.000000000003
"140" 95926 706.999999999994
"141" 96652 725.999999999999
"142" 97394 742.000000000004
"143" 98116 721.999999999994
"144" 98823 707.000000000008
"145" 99553 729.99999999999
"146" 100287 734.000000000009
"147" 100997 709.999999999994
"148" 101690 692.999999999998
"149" 102395 704.999999999998
"150" 103080 685.000000000002
"151" 103732 652.000000000001
"152" 104355 623.000000000005
"153" 105019 664.000000000001
"154" 105661 641.999999999996
"155" 106288 626.999999999995
"156" 106895 606.999999999999
"157" 107496 601.000000000013
"158" 108103 606.999999999999
"159" 108718 614.999999999995
"160" 109337 619
"161" 109962 625
"162" 110604 641.999999999996
"163" 111275 671.000000000006
"164" 111946 670.999999999992
"165" 112606 660.000000000011
"166" 113287 680.999999999997
"167" 113978 691.000000000003
"168" 114646 667.999999999992
"169" 115315 668.999999999997
"170" 116012 697.000000000003
"171" 116687 674.999999999997
"172" 117347 660.000000000011
"173" 118032 684.999999999988
"174" 118713 681.000000000012
"175" 119384 670.999999999992
"176" 120065 680.999999999997
"177" 120766 701.000000000008
"178" 121445 679.000000000002
"179" 122113 667.999999999992
"180" 122814 701.000000000008
"181" 123505 691.000000000003
"182" 124178 672.999999999988
"183" 124875 697.000000000003
"184" 125591 716.000000000008
"185" 126278 686.999999999998
"186" 126975 697.000000000003
"187" 127707 731.999999999999
"188" 128416 708.999999999989
"189" 129107 691.000000000003
"190" 129819 712.000000000018
"191" 130508 688.999999999993
"192" 131160 651.999999999987
"193" 131810 650.000000000006
"194" 132444 634.000000000015
"195" 133084 639.999999999986
"196" 133720 635.999999999996
"197" 134360 640.000000000015
"198" 135037 676.999999999992
"199" 135746 709.000000000003
"200" 136443 697.000000000003
"201" 137134 691.000000000003
"202" 137856 721.99999999998
"203" 138574 718.000000000018
"204" 139273 698.999999999984
"205" 139976 703.000000000003
"206" 140724 747.99999999999
"207" 141456 731.999999999999
"208" 142182 726.000000000028
"209" 142955 772.999999999996
"210" 143742 786.999999999978
"211" 144490 748.000000000019
"212" 145236 745.999999999981
"213" 145986 750
"214" 146710 724.000000000018
"215" 147422 711.999999999989
"216" 148174 752.00000000001
"217" 148929 754.999999999995
"218" 149669 740.000000000009
"219" 150438 769.000000000005
"220" 151225 786.999999999978
"221" 151988 763.000000000005
"222" 152738 750
"223" 153495 757.000000000005
"224" 154227 731.999999999999
"225" 154945 717.999999999989
"226" 155689 744
"227" 156421 731.999999999999
"228" 157145 724.000000000018
"229" 157900 754.999999999995
"230" 158661 760.999999999996
"231" 159401 740.000000000009
"232" 160139 738
"233" 160887 747.99999999999
"234" 161613 725.999999999999
"235" 162333 719.999999999999
"236" 163077 744
"237" 163813 736.000000000018
"238" 164535 721.99999999998
"239" 165267 731.999999999999
"240" 166005 738
"241" 166729 724.000000000018
"242" 167434 704.999999999984
"243" 168162 728.000000000009
"244" 168886 723.99999999999
"245" 169595 709.000000000003
"246" 170319 724.000000000018
"247" 171063 744
"248" 171785 721.99999999998
"249" 172499 713.999999999999
"250" 173233 734.000000000009
"251" 173955 722.000000000008
"252" 174665 709.99999999998
"253" 175389 724.000000000018
"254" 176123 733.99999999998
"255" 176847 724.000000000018
"256" 177581 734.000000000009
"257" 178333 751.999999999981
"258" 179065 731.999999999999
"259" 179777 712.000000000018
"260" 180501 723.99999999999
"261" 181233 731.999999999999
"262" 181955 722.000000000008
"263" 182669 713.999999999999
"264" 183399 729.99999999999
"265" 184121 722.000000000008
"266" 184839 717.999999999989
"267" 185583 744
"268" 186319 736.000000000018
"269" 187045 725.999999999999
"270" 187789 744
"271" 188531 741.99999999999
"272" 189259 728.000000000009
"273" 189964 704.999999999984
"274" 190651 687.000000000012
"275" 191330 679.000000000002
"276" 192009 679.000000000002
"277" 192698 688.999999999993
"278" 193387 688.999999999993
"279" 194064 676.999999999992
"280" 194728 664.000000000016
"281" 195388 659.999999999997
"282" 196042 653.999999999996
"283" 196702 659.999999999997
"284" 197368 665.999999999997
"285" 198051 683.000000000021
"286" 198748 696.999999999974
"287" 199431 683.000000000021
"288" 200118 686.999999999983
"289" 200821 703.000000000003
"290" 201514 693.000000000012
"291" 202199 685.000000000002
"292" 202902 703.000000000003
"293" 203618 715.99999999998
"294" 204332 713.999999999999
"295" 205042 710.000000000008
"296" 205776 734.000000000009
"297" 206504 727.99999999998
"298" 207220 716.000000000008
"299" 207962 742.000000000019
"300" 208704 741.99999999999
"301" 209432 728.000000000009
"302" 210162 729.99999999999
"303" 210906 744
"304" 211632 725.999999999999
"305" 212360 728.000000000009
"306" 213113 752.999999999986
"307" 213865 752.00000000001
"308" 214599 734.000000000009
"309" 215335 735.99999999999
"310" 216081 746.000000000009
"311" 216815 733.99999999998
"312" 217537 722.000000000008
"313" 218277 740.000000000009
"314" 219021 744
"315" 219749 727.99999999998
"316" 220477 728.000000000009
"317" 221217 740.000000000009
"318" 221943 725.999999999999
"319" 222661 717.999999999989
"320" 223397 735.99999999999
"321" 224131 734.000000000009
"322" 224855 724.000000000018
"323" 225569 713.999999999999
"324" 226307 738
"325" 227039 731.999999999999
"326" 227763 723.99999999999
"327" 228507 744
"328" 229282 775.000000000006
"329" 230028 745.999999999981
"330" 230770 742.000000000019
"331" 231520 750
"332" 232246 725.999999999999
"333" 232949 703.000000000003
"334" 233667 717.999999999989
"335" 234364 697.000000000003
"336" 235032 668.000000000006
"337" 235684 651.999999999987
"338" 236334 650.000000000006
"339" 236980 646.000000000015
"340" 237620 639.999999999986
"341" 238260 639.999999999986
"342" 238924 664.000000000016
"343" 239601 676.999999999992
"344" 240267 665.999999999997
"345" 240927 659.999999999997
"346" 241593 666.000000000025
"347" 242241 647.999999999996
"348" 242866 625
"349" 243481 614.999999999981
"350" 244098 617.000000000019
"351" 244762 663.999999999987
"352" 245410 647.999999999996
"353" 246038 628.000000000014
"354" 246668 629.999999999995
"355" 247283 615.000000000009
"356" 247900 616.99999999999
"357" 248517 616.99999999999
"358" 249151 634.000000000015
"359" 249824 673.000000000002
"360" 250515 691.000000000003
"361" 251204 688.999999999993
"362" 251914 710.000000000008
"363" 252621 706.999999999994
"364" 253330 709.000000000003
"365" 254050 719.999999999999
"366" 254747 697.000000000003
"367" 255416 668.999999999983
"368" 256058 641.999999999996
"369" 256702 644.000000000005
"370" 257356 653.999999999996
"371" 258059 703.000000000031
"372" 258762 702.999999999975
"373" 259469 706.999999999994
"374" 260197 728.000000000009
"375" 260952 754.999999999995
"376" 261666 713.999999999999
"377" 262390 723.99999999999
"378" 263114 724.000000000046
"379" 263811 696.999999999946
"380" 264512 701.000000000022
"381" 265215 703.000000000031
"382" 265927 711.999999999989
"383" 266624 697.000000000003
"384" 267323 698.999999999955
"385" 268016 693.00000000004
"386" 268726 709.99999999998
"387" 269431 704.999999999984
"388" 270143 712.000000000046
"389" 270871 727.999999999952
"390" 271595 724.000000000046
"391" 272347 751.999999999953
"392" 273120 773.000000000025
"393" 273852 732.000000000028
"394" 274592 739.999999999952
"395" 275336 744.000000000028
"396" 276052 716.000000000008
"397" 276782 729.999999999961
"398" 277502 720.000000000027
"399" 278209 706.999999999994
"400" 278910 701.000000000022
"401" 279607 697.000000000003
"402" 280306 698.999999999955
"403" 281005 699.000000000012
"404" 281710 704.999999999984
"405" 282411 701.000000000022
"406" 283118 706.999999999994
"407" 283840 722.000000000037
"408" 284560 719.99999999997
"409" 285292 732.000000000028
"410" 286040 747.99999999999
"411" 286768 728.000000000009
"412" 287506 738
"413" 288265 758.999999999958
"414" 289034 769.000000000005
"415" 289766 732.000000000028
"416" 290512 745.999999999981
"417" 291260 747.99999999999
"418" 291976 716.000000000008
"419" 292708 732.000000000028
"420" 293452 743.999999999971
"421" 294174 721.99999999998
"422" 294908 734.000000000037
"423" 295646 738
"424" 296388 742.000000000019
"425" 297114 725.999999999999
"426" 297848 733.99999999998
"427" 298564 716.000000000008
"428" 299267 702.999999999975
"429" 299956 689.000000000021
"430" 300631 675.000000000011
"431" 301304 673.000000000002
"432" 301962 657.999999999959
"433" 302590 628.000000000043
"434" 303224 633.999999999958
"435" 303851 627.00000000001
"436" 304499 648.000000000025
"437" 305165 665.999999999997
"438" 305848 682.999999999993
"439" 306535 687.000000000012
"440" 307245 709.99999999998
"441" 307959 713.999999999999
"442" 308693 733.99999999998
"443" 309443 750
"444" 310224 781.000000000006
"445" 310966 742.000000000019
"446" 311723 757.000000000005
"447" 312494 771.000000000015
"448" 313249 754.999999999995
"449" 313987 738
"450" 314740 752.999999999986
"451" 315503 762.999999999977
"452" 316241 738
"453" 316989 748.000000000047
"454" 317731 741.999999999962
"455" 318484 752.999999999986
"456" 319224 740.000000000009
"457" 319977 753.000000000043
"458" 320746 768.999999999949
"459" 321480 734.000000000037
"460" 322239 759.000000000015
"461" 322979 739.999999999952
"462" 323686 706.999999999994
"463" 324387 701.000000000022
"464" 325088 701.000000000022
"465" 325775 687.000000000012
"466" 326472 696.999999999946
"467" 327173 701.000000000022
"468" 327870 697.000000000003
"469" 328573 702.999999999975
"470" 329280 707.00000000005
"471" 329996 715.999999999951
"472" 330724 728.000000000009
"473" 331454 730.000000000018
"474" 332188 733.99999999998
"475" 332930 742.000000000019
"476" 333658 728.000000000009
"477" 334396 738
"478" 335132 735.99999999999
"479" 335856 723.99999999999
"480" 336582 725.999999999999
"481" 337320 738
"482" 338072 752.00000000001
"483" 338804 732.000000000028
"484" 339540 735.99999999999
"485" 340286 745.999999999981
"486" 341024 738
"487" 341770 745.999999999981
"488" 342523 753.000000000043
"489" 343253 729.999999999961
"490" 343979 725.999999999999
"491" 344699 720.000000000027
"492" 345415 716.000000000008
"493" 346124 709.000000000003
"494" 346834 709.99999999998
"495" 347560 725.999999999999
"496" 348280 720.000000000027
"497" 349018 738
"498" 349775 757.000000000005
"499" 350550 774.999999999977
"500" 351296 745.999999999981
"501" 352057 761.000000000024
"502" 352838 781.000000000006
"503" 353588 750
"504" 354345 757.000000000005
"505" 355120 774.999999999977
"506" 355936 816.000000000031
"507" 356705 768.999999999949
"508" 357484 778.999999999996
"509" 358269 785.000000000025
"510" 359024 754.999999999995
"511" 359793 769.000000000005
"512" 360576 783.000000000015
"513" 361341 764.999999999986
"514" 362116 774.999999999977
"515" 362909 793.000000000006
"516" 363684 775.000000000034
"517" 364437 752.999999999986
"518" 365194 757.000000000005
"519" 365957 762.999999999977
"520" 366697 740.000000000009
"521" 367441 744.000000000028
"522" 368191 750
"523" 368931 739.999999999952
"524" 369684 753.000000000043
"525" 370459 774.999999999977
"526" 371205 745.999999999981
"527" 371980 775.000000000034
"528" 372788 807.999999999993
"529" 373608 819.999999999993
"530" 374401 793.000000000006
"531" 375231 829.999999999984
"532" 376074 843.000000000018
"533" 376878 803.999999999974
"534" 377686 808.00000000005
"535" 378498 811.999999999955
"536" 379300 802.000000000021
"537" 380073 773.000000000025
"538" 380854 780.999999999949
"539" 381629 775.000000000034
"540" 382402 772.999999999968
"541" 383195 793.000000000006
"542" 383978 783.000000000015
"543" 384749 771.000000000015
"544" 385526 776.999999999987
"545" 386260 733.99999999998
"546" 386986 725.999999999999
"547" 387681 694.999999999993
"548" 388358 677.000000000021
"549" 389016 658.000000000015
"550" 389680 663.999999999987
"551" 390353 673.000000000002
"552" 391077 723.99999999999
"553" 391873 795.999999999992
"554" 392636 763.000000000034
"555" 393432 795.999999999992
"556" 394238 805.999999999983
"557" 395007 769.000000000005
"558" 395762 754.999999999995
"559" 396517 754.999999999995
"560" 397280 763.000000000034
"561" 398014 733.99999999998
"562" 398758 743.999999999971
"563" 399517 759.000000000015
"564" 400257 740.000000000009
"565" 401012 754.999999999995
"566" 401781 769.000000000005
"567" 402558 776.999999999987
"568" 403311 753.000000000043
"569" 404074 762.999999999977
"570" 404859 784.999999999968
"571" 405614 755.000000000052
"572" 406385 770.999999999958
"573" 407154 769.000000000005
"574" 407913 759.000000000015
"575" 408645 731.999999999971
"576" 409379 734.000000000037
"577" 410131 752.00000000001
"578" 410863 731.999999999971
"579" 411609 745.999999999981
"580" 412366 757.000000000005
"581" 413112 746.000000000038
"582" 413867 754.999999999995
"583" 414654 786.999999999978
"584" 415402 747.99999999999
"585" 416152 750
"586" 416911 759.000000000015
"587" 417684 773.000000000025
"588" 418430 745.999999999981
"589" 419183 752.999999999986
"590" 419956 773.000000000025
"591" 420704 747.99999999999
"592" 421448 744.000000000028
"593" 422182 733.99999999998
"594" 422898 716.000000000008
"595" 423626 728.000000000009
"596" 424348 721.99999999998
"597" 425084 735.99999999999
"598" 425818 733.99999999998
"599" 426570 752.00000000001
"600" 427345 775.000000000034
"601" 428100 754.999999999995
"602" 428877 776.999999999987
"603" 429664 786.999999999978
"604" 430437 773.000000000025
"605" 431228 790.999999999997
"606" 432044 815.999999999974
"607" 432878 834.000000000003
"608" 433651 773.000000000025
"609" 434434 783.000000000015
"610" 435225 790.999999999997
"611" 435988 762.999999999977
"612" 436755 766.999999999996
"613" 437536 781.000000000006
"614" 438289 752.999999999986
"615" 439042 753.000000000043
"616" 439805 762.999999999977
"617" 440560 754.999999999995
"618" 441296 735.99999999999
"619" 442030 734.000000000037
"620" 442762 731.999999999971
"621" 443490 728.000000000009
"622" 444232 742.000000000019
"623" 444984 752.00000000001
"624" 445749 764.999999999986
"625" 446487 738
"626" 447246 758.999999999958
"627" 447999 753.000000000043
"628" 448733 733.99999999998
"629" 449488 754.999999999995
"630" 450263 775.000000000034
"631" 451009 745.999999999981
"632" 451772 762.999999999977
"633" 452541 769.000000000005
"634" 453306 764.999999999986
"635" 454061 755.000000000052
"636" 454816 754.999999999995
"637" 455562 745.999999999981
"638" 456292 730.000000000018
"639" 457028 735.99999999999
"640" 457774 745.999999999981
"641" 458504 730.000000000018
"642" 459244 740.000000000009
"643" 459986 741.999999999962
"644" 460720 734.000000000037
"645" 461466 745.999999999981
"646" 462210 744.000000000028
"647" 462963 752.999999999986
"648" 463707 743.999999999971
"649" 464449 742.000000000019
"650" 465189 740.000000000009
"651" 465921 731.999999999971
"652" 466667 746.000000000038
"653" 467415 747.99999999999
"654" 468143 728.000000000009
"655" 468891 747.99999999999
"656" 469656 764.999999999986
"657" 470421 764.999999999986
"658" 471190 769.000000000005
"659" 471975 785.000000000025
"660" 472766 790.999999999997
"661" 473519 752.999999999986
"662" 474278 759.000000000015
"663" 475028 750
"664" 475760 731.999999999971
"665" 476496 736.000000000047
"666" 477230 733.99999999998
"667" 477970 740.000000000009
"668" 478706 735.99999999999
"669" 479456 750
"670" 480229 772.999999999968
"671" 480990 761.000000000024
"672" 481773 783.000000000015
"673" 482562 788.999999999987
"674" 483364 802.000000000021
"675" 484155 790.999999999997
"676" 484983 827.999999999975
"677" 485813 829.999999999984
"678" 486586 773.000000000025
"679" 487359 773.000000000025
"680" 488140 780.999999999949
"681" 488919 778.999999999996
"682" 489676 757.000000000005
"683" 490441 765.000000000043
"684" 491212 770.999999999958
"685" 491964 752.00000000001
"686" 492723 759.000000000015
"687" 493480 757.000000000005
"688" 494220 740.000000000009
"689" 494962 741.999999999962
"690" 495712 750
"691" 496446 734.000000000037
"692" 497199 752.999999999986
"693" 497958 759.000000000015
"694" 498725 766.999999999996
"695" 499475 750
"696" 500240 764.999999999986
"697" 501023 783.000000000015
"698" 501784 760.999999999967
"699" 502545 761.000000000024
"700" 503310 764.999999999986
"701" 504052 742.000000000019
"702" 504798 745.999999999981
"703" 505544 745.999999999981
"704" 506260 716.000000000008
"705" 507004 744.000000000028
"706" 507748 743.999999999971
"707" 508503 754.999999999995
"708" 509256 753.000000000043
"709" 510023 766.999999999996
"710" 510812 788.999999999987
"711" 511564 752.00000000001
"712" 512325 761.000000000024
"713" 513086 760.999999999967
"714" 513845 759.000000000015
"715" 514604 759.000000000015
"716" 515365 760.999999999967
"717" 516144 778.999999999996
"718" 516890 745.999999999981
"719" 517651 761.000000000081
"720" 518416 764.999999999986
"721" 519156 740.000000000009
"722" 519900 743.999999999915
"723" 520642 742.000000000075
"724" 521395 752.999999999929
"725" 522135 740.000000000009
"726" 522900 764.999999999986
"727" 523681 781.000000000063
"728" 524427 745.999999999981
"729" 525202 774.999999999977
"730" 525977 774.999999999977
"731" 526740 763.000000000034
"732" 527492 751.999999999953
"733" 528245 753.000000000043
"734" 529000 754.999999999995
"735" 529744 744.000000000028
"736" 530490 745.999999999981
"737" 531251 760.999999999967
"738" 531987 735.99999999999
"739" 532735 748.000000000047
"740" 533481 745.999999999981
"741" 534223 741.999999999962
"742" 534965 742.000000000075
"743" 535711 745.999999999981
"744" 536463 751.999999999953
"745" 537199 735.99999999999
"746" 537949 750
"747" 538699 750
"748" 539431 732.000000000085
"749" 540175 743.999999999915
"750" 540909 734.000000000037
"751" 541643 734.000000000037
"752" 542383 740.000000000009
"753" 543140 756.999999999948
"754" 543901 761.000000000081
"755" 544660 758.999999999901
"756" 545445 785.000000000082
"757" 546243 798.000000000002
"758" 547030 786.999999999921
"759" 547782 752.000000000066
"760" 548545 762.99999999992
"761" 549304 759.000000000015
"762" 550038 734.000000000037
"763" 550780 741.999999999962
"764" 551530 750
"765" 552282 752.000000000066
"766" 553026 744.000000000028
"767" 553762 735.99999999999
"768" 554502 740.000000000009
"769" 555242 739.999999999895
"770" 556003 761.000000000081
"771" 556774 770.999999999958
"772" 557535 760.999999999967
"773" 558312 777.000000000044
"774" 559116 803.999999999974
"775" 559918 802.000000000021
"776" 560687 769.000000000005
"777" 561472 784.999999999968
"778" 562266 793.999999999983
"779" 563033 767.000000000053
"780" 563788 754.999999999995
"781" 564559 770.999999999958
"782" 565361 802.000000000021
"783" 566140 778.999999999996
"784" 566925 785.000000000082
"785" 567721 795.999999999935
"786" 568486 764.999999999986
"787" 569259 773.000000000025
"788" 570046 787.000000000035
"789" 570872 825.999999999908
"790" 571655 783.000000000015
"791" 572485 830.000000000041
"792" 573334 849.000000000046
"793" 574177 842.999999999961
"794" 574973 795.999999999935
"795" 575787 814.000000000078
"796" 576599 812.000000000012
"797" 577374 774.999999999977
"798" 578135 760.999999999967
"799" 578879 744.000000000028
"800" 579634 754.999999999995
"801" 580376 741.999999999962
"802" 581118 742.000000000075
"803" 581868 750
"804" 582620 751.999999999953
"805" 583393 773.000000000025
"806" 584182 788.999999999987
"807" 584953 770.999999999958
"808" 585710 757.000000000062
"809" 586463 752.999999999929
"810" 587175 712.000000000103
"811" 587913 737.999999999943
"812" 588678 764.999999999986
"813" 589467 788.999999999987
"814" 590238 771.000000000072
"815" 591015 776.99999999993
"816" 591802 787.000000000035
"817" 592604 802.000000000021
"818" 593359 754.999999999995
"819" 594120 760.999999999967
"820" 594879 759.000000000015
"821" 595623 744.000000000028
"822" 596369 745.999999999981
"823" 597115 745.999999999981
"824" 597843 727.999999999952
"825" 598571 728.000000000065
"826" 599301 730.000000000018
"827" 600043 741.999999999962
"828" 600765 721.99999999998
"829" 601497 731.999999999971
"830" 602239 742.000000000075
"831" 603006 766.999999999939
"832" 603752 746.000000000095
"833" 604505 752.999999999929
"834" 605262 757.000000000062
"835" 605998 735.99999999999
"836" 606750 751.999999999953
"837" 607505 754.999999999995
"838" 608257 752.000000000066
"839" 609003 745.999999999981
"840" 609756 752.999999999929
"841" 610525 769.000000000005
"842" 611273 748.000000000047
"843" 612019 745.999999999981
"844" 612792 773.000000000025
"845" 613581 788.999999999987
"846" 614346 764.999999999986
"847" 615101 754.999999999995
"848" 615858 757.000000000062
"849" 616633 774.999999999977
"850" 617377 744.000000000028
"851" 618121 743.999999999915
"852" 618859 738.000000000056
"853" 619583 723.999999999933
"854" 620317 734.000000000037
"855" 621049 731.999999999971
"856" 621769 720.000000000027
"857" 622507 738.000000000056
"858" 623259 751.999999999953
"859" 624014 754.999999999995
"860" 624789 774.999999999977
"861" 625570 781.000000000063
"862" 626323 752.999999999929
"863" 627076 753.000000000043
"864" 627814 737.999999999943
"865" 628548 734.000000000037
"866" 629270 721.99999999998
"867" 629990 720.000000000027
"868" 630704 714.000000000055
"869" 631414 709.999999999923
"870" 632132 718.000000000075
"871" 632854 721.99999999998
"872" 633602 747.999999999934
"873" 634359 757.000000000062
"874" 635128 769.000000000005
"875" 635942 813.999999999965
"876" 636809 866.999999999962
"877" 637602 793.000000000006
"878" 638410 807.999999999993
"879" 639236 826.000000000022
"880" 640005 769.000000000005
"881" 640760 754.999999999995
"882" 641523 763.000000000034
"883" 642300 777.000000000044
"884" 643059 758.999999999901
"885" 643824 765.0000000001
"886" 644595 770.999999999958
"887" 645368 773.000000000025
"888" 646118 750
"889" 646868 750
"890" 647621 752.999999999929
"891" 648349 728.000000000065
"892" 649079 730.000000000018
"893" 649791 711.999999999989
"894" 650503 711.999999999989
"895" 651231 727.999999999952
"896" 651951 720.000000000027
"897" 652683 731.999999999971
"898" 653436 753.000000000043
"899" 654223 787.000000000035
"900" 655049 825.999999999908
"901" 655838 788.999999999987
"902" 656632 794.000000000096
"903" 657440 807.999999999993
"904" 658250 809.999999999945
"905" 659027 777.000000000044
"906" 659794 766.999999999939
"907" 660581 787.000000000035
"908" 661375 793.999999999983
"909" 662134 759.000000000015
"910" 662907 773.000000000025
"911" 663707 799.999999999955
"912" 664460 753.000000000043
"913" 665227 766.999999999939
"914" 666002 775.000000000091
"915" 666752 750
"916" 667505 752.999999999929
"917" 668258 753.000000000043
"918" 669017 759.000000000015
"919" 669755 737.999999999943
"920" 670479 724.000000000046
"921" 671188 708.999999999946
"922" 671883 695.00000000005
"923" 672568 684.999999999945
"924" 673247 678.999999999974
"925" 673911 664.000000000101
"926" 674555 644.000000000005
"927" 675191 635.999999999967
"928" 675810 619.000000000028
"929" 676554 743.999999999915
"930" 677263 709.00000000006
"931" 677964 701.000000000022
"932" 678641 676.999999999907
"933" 679326 685.000000000059
"934" 679995 668.999999999983
"935" 680659 663.999999999987
"936" 681301 642.000000000053
"937" 681929 627.999999999929
"938" 682556 627.000000000066
"939" 683190 634.000000000015
"940" 683850 659.999999999968
"941" 684557 706.999999999994
"942" 685260 702.999999999975
"943" 685957 697.000000000003
"944" 686648 691.000000000031
"945" 687349 701.000000000022
"946" 688083 733.999999999924
"947" 688793 710.000000000036
"948" 689507 714.000000000055
"949" 690219 711.999999999989
"950" 690949 730.000000000018
"951" 691704 754.999999999995
"952" 692414 709.999999999923
"953" 693140 725.999999999999
"954" 693880 740.000000000009
"955" 694657 777.000000000044
"956" 695410 752.999999999929
"957" 696156 746.000000000095
"958" 696921 764.999999999986
"959" 697702 780.999999999949
"960" 698473 771.000000000072
"961" 699221 747.999999999934
"962" 699963 741.999999999962
"963" 700716 753.000000000043
"964" 701495 778.999999999996
"965" 702245 750
"966" 702997 752.000000000066
"967" 703778 780.999999999949
"968" 704582 803.999999999974
"969" 705359 777.000000000044
"970" 706130 770.999999999958
"971" 706923 793.000000000006
"972" 707725 802.000000000021
"973" 708486 760.999999999967
"974" 709249 763.000000000034
"975" 710012 763.000000000034
"976" 710793 780.999999999949
"977" 711552 759.000000000015
"978" 712327 774.999999999977
"979" 713114 787.000000000035
"980" 713879 764.999999999986
"981" 714638 759.000000000015
"982" 715417 778.999999999996
"983" 716190 773.000000000025
"984" 716936 745.999999999981
"985" 717689 752.999999999929
"986" 718444 754.999999999995
"987" 719203 759.000000000015
"988" 719960 757.000000000062
"989" 720719 759.000000000015
"990" 721482 762.99999999992
"991" 722210 728.000000000065
"992" 722944 733.999999999924
"993" 723672 728.000000000065
"994" 724416 744.000000000028
"995" 725158 741.999999999962
"996" 725919 760.999999999967
"997" 726708 788.999999999987
"998" 727479 771.000000000072
"999" 728273 793.999999999983
"1000" 729093 820
"1001" 729886 793
"1002" 730659 773
"1003" 731446 787
"1004" 732233 787
"1005" 732985 752
"1006" 733737 752
"1007" 734487 750
"1008" 735254 767
"1009" 736007 753
"1010" 736780 773
"1011" 737576 796
"1012" 738374 798
"1013" 739135 761
"1014" 739914 779
"1015" 740699 785
"1016" 741458 759
"1017" 742210 752
"1018" 742965 755
"1019" 743738 773
"1020" 744484 746
"1021" 745237 753
"1022" 745996 759
"1023" 746749 753
"1024" 747493 744
"1025" 748250 757
"1026" 749025 775
"1027" 749788 763
"1028" 750567 779
"1029" 751367 800
"1030" 752169 802
"1031" 752930 761
"1032" 753701 771
"1033" 754478 777
"1034" 755233 755
"1035" 755992 759
"1036" 756763 771
"1037" 757554 791
"1038" 758335 781
"1039" 759110 775
"1040" 759906 796
"1041" 760749 843
"1042" 761538 789
"1043" 762325 787
"1044" 763110 785
"1045" 763889 779
"1046" 764641 752
"1047" 765410 769
"1048" 766177 767
"1049" 766940 763
"1050" 767707 767
"1051" 768494 787
"1052" 769298 804
"1053" 770081 783
"1054" 770885 804
"1055" 771691 806
"1056" 772484 793
"1057" 773255 771
"1058" 774046 791
"1059" 774848 802
"1060" 775627 779
"1061" 776400 773
"1062" 777179 779
"1063" 777950 771
"1064" 778717 767
"1065" 779451 734
"1066" 780177 726
"1067" 780895 718
"1068" 781623 728
"1069" 782347 724
"1070" 783071 724
"1071" 783813 742
"1072" 784566 753
"1073" 785351 785
"1074" 786106 755
"1075" 786902 796
"1076" 787706 804
"1077" 788485 779
"1078" 789254 769
"1079" 790043 789
"1080" 790851 808
"1081" 791638 787
"1082" 792409 771
"1083" 793188 779
"1084" 793965 777
"1085" 794713 748
"1086" 795470 757
"1087" 796233 763
"1088" 797008 775
"1089" 797758 750
"1090" 798519 761
"1091" 799286 767
"1092" 800036 750
"1093" 800788 752
"1094" 801545 757
"1095" 802293 748
"1096" 803017 724
"1097" 803749 732
"1098" 804483 734
"1099" 805221 738
"1100" 805965 744
"1101" 806709 744
"1102" 807464 755
"1103" 808217 753
"1104" 808970 753
"1105" 809745 775
"1106" 810538 793
"1107" 811290 752
"1108" 812038 748
"1109" 812782 744
"1110" 813530 748
"1111" 814266 736
"1112" 815008 742
"1113" 815756 748
"1114" 816500 744
"1115" 817242 742
"1116" 817992 750
"1117" 818755 763
"1118" 819489 734
"1119" 820227 738
"1120" 820977 750
"1121" 821738 761
"1122" 822472 734
"1123" 823210 738
"1124" 823944 734
"1125" 824666 722
"1126" 825392 726
"1127" 826116 724
"1128" 826864 748
"1129" 827614 750
"1130" 828364 750
"1131" 829121 757
"1132" 829900 779
"1133" 830657 757
"1134" 831409 752
"1135" 832159 750
"1136" 832912 753
"1137" 833654 742
"1138" 834384 730
"1139" 835126 742
"1140" 835860 734
"1141" 836600 740
"1142" 837344 744
"1143" 838119 775
"1144" 838882 763
"1145" 839671 789
"1146" 840473 802
"1147" 841277 804
"1148" 842032 755
"1149" 842795 763
"1150" 843580 785
"1151" 844376 796
"1152" 845163 787
"1153" 845961 798
"1154" 846787 826
"1155" 847599 812
"1156" 848374 775
"1157" 849155 781
"1158" 849936 781
"1159" 850688 752
"1160" 851438 750
"1161" 852182 744
"1162" 852945 763
"1163" 853685 740
"1164" 854421 736
"1165" 855163 742
"1166" 855915 752
"1167" 856663 748
"1168" 857415 752
"1169" 858198 783
"1170" 858979 781
"1171" 859754 775
"1172" 860539 785
"1173" 861351 812
"1174" 862134 783
"1175" 862913 779
"1176" 863711 798
"1177" 864523 812
"1178" 865284 761
"1179" 866039 755
"1180" 866789 750
"1181" 867539 750
"1182" 868281 742
"1183" 869038 757
"1184" 869819 781
"1185" 870598 779
"1186" 871363 765
"1187" 872148 785
"1188" 872929 781
"1189" 873690 761
"1190" 874455 765
"1191" 875234 779
"1192" 875999 765
"1193" 876760 761
"1194" 877517 757
"1195" 878278 761
"1196" 879033 755
"1197" 879790 757
"1198" 880555 765
"1199" 881336 781
"1200" 882109 773
"1201" 882884 775
"1202" 883673 789
"1203" 884477 804
"1204" 885250 773
"1205" 886027 777
"1206" 886816 789
"1207" 887599 783
"1208" 888362 763
"1209" 889135 773
"1210" 889914 779
"1211" 890683 769
"1212" 891446 763
"1213" 892221 775
"1214" 893025 804
"1215" 893814 789
"1216" 894593 779
"1217" 895376 783
"1218" 896157 781
"1219" 896912 755
"1220" 897671 759
"1221" 898440 769
"1222" 899219 779
"1223" 899982 763
"1224" 900755 773
"1225" 901542 787
"1226" 902346 804
"1227" 903115 769
"1228" 903906 791
"1229" 904697 791
"1230" 905470 773
"1231" 906210 740
"1232" 906934 724
"1233" 907641 707
"1234" 908342 701
"1235" 909031 689
"1236" 909697 666
"1237" 910365 668
"1238" 911042 677
"1239" 911725 683
"1240" 912422 697
"1241" 913127 705
"1242" 913839 712
"1243" 914555 716
"1244" 915271 716
"1245" 916003 732
"1246" 916758 755
"1247" 917519 761
"1248" 918249 730
"1249" 918975 726
"1250" 919705 730
"1251" 920464 759
"1252" 921202 738
"1253" 921940 738
"1254" 922678 738
"1255" 923430 752
"1256" 924156 726
"1257" 924876 720
"1258" 925606 730
"1259" 926338 732
"1260" 927080 742
"1261" 927824 744
"1262" 928576 752
"1263" 929306 730
"1264" 930050 744
"1265" 930778 728
"1266" 931492 714
"1267" 932222 730
"1268" 932962 740
"1269" 933714 752
"1270" 934464 750
"1271" 935216 752
"1272" 935997 781
"1273" 936803 806
"1274" 937570 767
"1275" 938351 781
"1276" 939126 775
"1277" 939872 746
"1278" 940620 748
"1279" 941362 742
"1280" 942102 740
"1281" 942846 744
"1282" 943592 746
"1283" 944353 761
"1284" 945105 752
"1285" 945880 775
"1286" 946671 791
"1287" 947477 806
"1288" 948250 773
"1289" 949027 777
"1290" 949810 783
"1291" 950571 761
"1292" 951323 752
"1293" 952069 746
"1294" 952822 753
"1295" 953564 742
"1296" 954312 748
"1297" 955058 746
"1298" 955808 750
"1299" 956556 748
"1300" 957306 750
"1301" 958065 759
"1302" 958848 783
"1303" 959605 757
"1304" 960376 771
"1305" 961149 773
"1306" 961924 775
"1307" 962681 757
"1308" 963444 763
"1309" 964201 757
"1310" 964962 761
"1311" 965717 755
"1312" 966508 791
"1313" 967318 810
"1314" 968089 771
"1315" 968893 804
"1316" 969727 834
"1317" 970562 835
"1318" 971355 793
"1319" 972173 818
"1320" 972993 820
"1321" 973778 785
"1322" 974559 781
"1323" 975357 798
"1324" 976161 804
"1325" 976926 765
"1326" 977693 767
"1327" 978458 765
"1328" 979210 752
"1329" 979958 748
"1330" 980700 742
"1331" 981446 746
"1332" 982182 736
"1333" 982910 728
"1334" 983619 709
"1335" 984324 705
"1336" 985031 707
"1337" 985745 714
"1338" 986444 699
"1339" 987149 705
"1340" 987865 716
"1341" 988575 710
"1342" 989303 728
"1343" 990047 744
"1344" 990802 755
"1345" 991561 759
"1346" 992340 779
"1347" 993086 746
"1348" 993836 750
"1349" 994589 753
"1350" 995362 773
"1351" 996115 753
"1352" 996853 738
"1353" 997581 728
"1354" 998336 755
"1355" 999093 757
"1356" 999870 777
"1357" 1000688 818
"1358" 1001475 787
"1359" 1002246 771
"1360" 1003023 777
"1361" 1003796 773
"1362" 1004538 742
"1363" 1005282 744
"1364" 1006020 738
"1365" 1006787 767
"1366" 1007542 755
"1367" 1008309 767
"1368" 1009080 771
"1369" 1009863 783
"1370" 1010609 746
"1371" 1011355 746
"1372" 1012097 742
"1373" 1012852 755
"1374" 1013598 746
"1375" 1014357 759
"1376" 1015114 757
"1377" 1015860 746
"1378" 1016596 736
"1379" 1017324 728
"1380" 1018064 740
"1381" 1018794 730
"1382" 1019524 730
"1383" 1020254 730
"1384" 1020963 709
"1385" 1021666 703
"1386" 1022357 691
"1387" 1023034 677
"1388" 1023700 666
"1389" 1024344 644
"1390" 1024980 636
"1391" 1025614 634
"1392" 1026258 644
"1393" 1026894 636
"1394" 1027536 642
"1395" 1028184 648
"1396" 1028834 650
"1397" 1029482 648
"1398" 1030138 656
"1399" 1030792 654
"1400" 1031452 660
"1401" 1032104 652
"1402" 1032773 669
"1403" 1033454 681
"1404" 1034147 693
"1405" 1034850 703
"1406" 1035580 730
"1407" 1036300 720
"1408" 1037046 746
"1409" 1037782 736
"1410" 1038539 757
"1411" 1039265 726
"1412" 1039981 716
"1413" 1040684 703
"1414" 1041412 728
"1415" 1042136 724
"1416" 1042852 716
"1417" 1043582 730
"1418" 1044339 757
"1419" 1045079 740
"1420" 1045821 742
"1421" 1046569 748
"1422" 1047299 730
"1423" 1048031 732
"1424" 1048745 714
"1425" 1049469 724
"1426" 1050176 707
"1427" 1050869 693
"1428" 1051562 693
"1429" 1052257 695
"1430" 1052958 701
"1431" 1053653 695
"1432" 1054356 703
"1433" 1055066 710
"1434" 1055776 710
"1435" 1056481 705
"1436" 1057203 722
"1437" 1057913 710
"1438" 1058623 710
"1439" 1059324 701
"1440" 1060034 710
"1441" 1060733 699
"1442" 1061432 699
"1443" 1062103 671
"1444" 1062755 652
"1445" 1063403 648
"1446" 1064063 660
"1447" 1064746 683
"1448" 1065419 673
"1449" 1066114 695
"1450" 1066840 726
"1451" 1067554 714
"1452" 1068263 709
"1453" 1068977 714
"1454" 1069713 736
"1455" 1070431 718
"1456" 1071145 714
"1457" 1071857 712
"1458" 1072587 730
"1459" 1073325 738
"1460" 1074049 724
"1461" 1074773 724
"1462" 1075491 718
"1463" 1076217 726
"1464" 1076935 718
"1465" 1077653 718
"1466" 1078369 716
"1467" 1079091 722
"1468" 1079811 720
"1469" 1080523 712
"1470" 1081247 724
"1471" 1081975 728
"1472" 1082701 726
"1473" 1083423 722
"1474" 1084157 734
"1475" 1084877 720
"1476" 1085601 724
"1477" 1086315 714
"1478" 1087061 746
"1479" 1087791 730
"1480" 1088537 746
"1481" 1089283 746
"1482" 1090042 759
"1483" 1090774 732
"1484" 1091510 736
"1485" 1092252 742
"1486" 1092976 724
"1487" 1093704 728
"1488" 1094428 724
"1489" 1095174 746
"1490" 1095900 726
"1491" 1096644 744
"1492" 1097392 748
"1493" 1098163 771
"1494" 1098916 753
"1495" 1099673 757
"1496" 1100436 763
"1497" 1101172 736
"1498" 1101916 744
"1499" 1102654 738
"1500" 1103396 742
"1501" 1104138 742
"1502" 1104893 755
"1503" 1105662 769
"1504" 1106415 753
"1505" 1107161 746
"1506" 1107895 734
"1507" 1108635 740
"1508" 1109379 744
"1509" 1110107 728
"1510" 1110843 736
"1511" 1111575 732
"1512" 1112325 750
"1513" 1113049 724
"1514" 1113767 718
"1515" 1114497 730
"1516" 1115192 695
"1517" 1115891 699
"1518" 1116588 697
"1519" 1117300 712
"1520" 1118001 701
"1521" 1118713 712
"1522" 1119443 730
"1523" 1120191 748
"1524" 1120960 769
"1525" 1121725 765
"1526" 1122490 765
"1527" 1123259 769
"1528" 1123985 726
"1529" 1124697 712
"1530" 1125378 681
"1531" 1126040 662
"1532" 1126688 648
"1533" 1127313 625
"1534" 1127922 609
"1535" 1128519 597
"1536" 1129110 591
"1537" 1129694 584
"1538" 1130264 570
"1539" 1130926 662
"1540" 1131584 658
"1541" 1132240 656
"1542" 1132888 648
"1543" 1133513 625
"1544" 1134141 628
"1545" 1134777 636
"1546" 1135421 644
"1547" 1136065 644
"1548" 1136723 658
"1549" 1137394 671
"1550" 1138067 673
"1551" 1138736 669
"1552" 1139402 666
"1553" 1140054 652
"1554" 1140700 646
"1555" 1141334 634
"1556" 1141951 617
"1557" 1142554 603
"1558" 1143141 587
"1559" 1143732 591
"1560" 1144370 638
"1561" 1145088 718
"1562" 1145830 742
"1563" 1146619 789
"1564" 1147380 761
"1565" 1148163 783
"1566" 1148969 806
"1567" 1149721 752
"1568" 1150461 740
"1569" 1151150 689
"1570" 1151810 660
"1571" 1152470 660
"1572" 1153141 671
"1573" 1153828 687
"1574" 1154578 750
"1575" 1155324 746
"1576" 1156064 740
"1577" 1156831 767
"1578" 1157592 761
"1579" 1158326 734
"1580" 1159029 703
"1581" 1159724 695
"1582" 1160448 724
"1583" 1161244 796
"1584" 1162081 837
"1585" 1162924 843
"1586" 1163730 806
"1587" 1164485 755
"1588" 1165221 736
"1589" 1165945 724
"1590" 1166648 703
"1591" 1167335 687
"1592" 1167999 664
"1593" 1168641 642
"1594" 1169277 636
"1595" 1169911 634
"1596" 1170543 632
"1597" 1171189 646
"1598" 1171829 640
"1599" 1172461 632
"1600" 1173107 646
"1601" 1173747 640
"1602" 1174395 648
"1603" 1175061 666
"1604" 1175727 666
"1605" 1176389 662
"1606" 1177062 673
"1607" 1177737 675
"1608" 1178424 687
"1609" 1179113 689
"1610" 1179816 703
"1611" 1180526 710
"1612" 1181223 697
"1613" 1181912 689
"1614" 1182589 677
"1615" 1183264 675
"1616" 1183920 656
"1617" 1184578 658
"1618" 1185247 669
"1619" 1185907 660
"1620" 1186569 662
"1621" 1187238 669
"1622" 1187906 668
"1623" 1188587 681
"1624" 1189262 675
"1625" 1189935 673
"1626" 1190583 648
"1627" 1191233 650
"1628" 1191895 662
"1629" 1192586 691
"1630" 1193267 681
"1631" 1193962 695
"1632" 1194669 707
"1633" 1195374 705
"1634" 1196090 716
"1635" 1196802 712
"1636" 1197514 712
"1637" 1198219 705
"1638" 1198926 707
"1639" 1199627 701
"1640" 1200326 699
"1641" 1201029 703
"1642" 1201724 695
"1643" 1202429 705
"1644" 1203132 703
"1645" 1203835 703
"1646" 1204530 695
"1647" 1205225 695
"1648" 1205924 699
"1649" 1206623 699
"1650" 1207337 714
"1651" 1208051 714
"1652" 1208777 726
"1653" 1209493 716
"1654" 1210215 722
"1655" 1210939 724
"1656" 1211648 709
"1657" 1212368 720
"1658" 1213084 716
"1659" 1213806 722
"1660" 1214520 714
"1661" 1215234 714
"1662" 1215958 724
"1663" 1216686 728
"1664" 1217426 740
"1665" 1218158 732
"1666" 1218882 724
"1667" 1219596 714
"1668" 1220308 712
"1669" 1221026 718
"1670" 1221774 748
"1671" 1222518 744
"1672" 1223268 750
"1673" 1224012 744
"1674" 1224732 720
"1675" 1225460 728
"1676" 1226178 718
"1677" 1226896 718
"1678" 1227622 726
"1679" 1228344 722
"1680" 1229080 736
"1681" 1229806 726
"1682" 1230538 732
"1683" 1231260 722
"1684" 1231982 722
"1685" 1232708 726
"1686" 1233438 730
"1687" 1234164 726
"1688" 1234874 710
"1689" 1235583 709
"1690" 1236286 703
"1691" 1237006 720
"1692" 1237716 710
"1693" 1238425 709
"1694" 1239134 709
"1695" 1239844 710
"1696" 1240556 712
"1697" 1241268 712
"1698" 1241988 720
"1699" 1242700 712
"1700" 1243418 718
"1701" 1244132 714
"1702" 1244850 718
"1703" 1245574 724
"1704" 1246300 726
"1705" 1247034 734
"1706" 1247791 757
"1707" 1248548 757
"1708" 1249294 746
"1709" 1250042 748
"1710" 1250790 748
"1711" 1251516 726
"1712" 1252242 726
"1713" 1252960 718
"1714" 1253696 736
"1715" 1254418 722
"1716" 1255150 732
"1717" 1255898 748
"1718" 1256661 763
"1719" 1257426 765
"1720" 1258207 781
"1721" 1259019 812
"1722" 1259784 765
"1723" 1260543 759
"1724" 1261293 750
"1725" 1262035 742
"1726" 1262755 720
"1727" 1263467 712
"1728" 1264189 722
"1729" 1264907 718
"1730" 1265647 740
"1731" 1266373 726
"1732" 1267113 740
"1733" 1267843 730
"1734" 1268596 753
"1735" 1269349 753
"1736" 1270081 732
"1737" 1270825 744
"1738" 1271573 748
"1739" 1272321 748
"1740" 1273033 712
"1741" 1273759 726
"1742" 1274479 720
"1743" 1275180 701
"1744" 1275892 712
"1745" 1276602 710
"1746" 1277328 726
"1747" 1278048 720
"1748" 1278764 716
"1749" 1279502 738
"1750" 1280259 757
"1751" 1280999 740
"1752" 1281751 752
"1753" 1282508 757
"1754" 1283265 757
"1755" 1284017 752
"1756" 1284763 746
"1757" 1285518 755
"1758" 1286238 720
"1759" 1286968 730
"1760" 1287678 710
"1761" 1288388 710
"1762" 1289100 712
"1763" 1289812 712
"1764" 1290524 712
"1765" 1291256 732
"1766" 1291978 722
"1767" 1292700 722
"1768" 1293420 720
"1769" 1294136 716
"1770" 1294850 714
"1771" 1295568 718
"1772" 1296296 728
"1773" 1297022 726
"1774" 1297752 730
"1775" 1298480 728
"1776" 1299208 728
"1777" 1299956 748
"1778" 1300696 740
"1779" 1301448 752
"1780" 1302196 748
"1781" 1302926 730
"1782" 1303670 744
"1783" 1304416 746
"1784" 1305183 767
"1785" 1305919 736
"1786" 1306665 746
"1787" 1307413 748
"1788" 1308147 734
"1789" 1308885 738
"1790" 1309627 742
"1791" 1310361 734
"1792" 1311101 740
"1793" 1311815 714
"1794" 1312533 718
"1795" 1313267 734
"1796" 1314013 746
"1797" 1314770 757
"1798" 1315490 720
"1799" 1316224 734
"1800" 1316940 716
"1801" 1317623 683
"1802" 1318355 732
"1803" 1319042 687
"1804" 1319723 681
"1805" 1320369 646
"1806" 1320999 630
"1807" 1321610 611
"1808" 1322213 603
"1809" 1322814 601
"1810" 1323439 625
"1811" 1324069 630
"1812" 1324701 632
"1813" 1325333 632
"1814" 1326004 671
"1815" 1326730 726
"1816" 1327440 710
"1817" 1328229 789
"1818" 1329082 853
"1819" 1329916 834
"1820" 1330695 779
"1821" 1331509 814
"1822" 1332325 816
"1823" 1333077 752
"1824" 1333829 752
"1825" 1334579 750
"1826" 1335303 724
"1827" 1336035 732
"1828" 1336763 728
"1829" 1337499 736
"1830" 1338233 734
"1831" 1338986 753
"1832" 1339749 763
"1833" 1340485 736
"1834" 1341242 757
"1835" 1341994 752
"1836" 1342722 728
"1837" 1343462 740
"1838" 1344198 736
"1839" 1344940 742
"1840" 1345672 732
"1841" 1346412 740
"1842" 1347146 734
"1843" 1347886 740
"1844" 1348626 740
"1845" 1349381 755
"1846" 1350148 767
"1847" 1350896 748
"1848" 1351653 757
"1849" 1352403 750
"1850" 1353137 734
"1851" 1353873 736
"1852" 1354615 742
"1853" 1355351 736
"1854" 1356083 732
"1855" 1356833 750
"1856" 1357590 757
"1857" 1358357 767
"1858" 1359122 765
"1859" 1359893 771
"1860" 1360678 785
"1861" 1361426 748
"1862" 1362181 755
"1863" 1362909 728
"1864" 1363621 712
"1865" 1364326 705
"1866" 1365033 707
"1867" 1365763 730
"1868" 1366497 734
"1869" 1367219 722
"1870" 1367967 748
"1871" 1368701 734
"1872" 1369435 734
"1873" 1370171 736
"1874" 1370917 746
"1875" 1371661 744
"1876" 1372411 750
"1877" 1373145 734
"1878" 1373871 726
"1879" 1374603 732
"1880" 1375329 726
"1881" 1376071 742
"1882" 1376787 716
"1883" 1377515 728
"1884" 1378231 716
"1885" 1378947 716
"1886" 1379646 699
"1887" 1380349 703
"1888" 1381022 673
"1889" 1381699 677
"1890" 1382376 677
"1891" 1383044 668
"1892" 1383712 668
"1893" 1384368 656
"1894" 1385018 650
"1895" 1385646 628
"1896" 1386269 623
"1897" 1386884 615
"1898" 1387507 623
"1899" 1388157 650
"1900" 1388791 634
"1901" 1389439 648
"1902" 1390120 681
"1903" 1390793 673
"1904" 1391488 695
"1905" 1392249 761
"1906" 1393061 812
"1907" 1393855 794
"1908" 1394667 812
"1909" 1395499 832
"1910" 1396268 769
"1911" 1397051 783
"1912" 1397847 796
"1913" 1398624 777
"1914" 1399370 746
"1915" 1400112 742
"1916" 1400850 738
"1917" 1401592 742
"1918" 1402336 744
"1919" 1403088 752
"1920" 1403840 752
"1921" 1404568 728
"1922" 1405292 724
"1923" 1406008 716
"1924" 1406738 730
"1925" 1407458 720
"1926" 1408174 716
"1927" 1408906 732
"1928" 1409634 728
"1929" 1410356 722
"1930" 1411074 718
"1931" 1411800 726
"1932" 1412509 709
"1933" 1413210 701
"1934" 1413901 691
"1935" 1414604 703
"1936" 1415297 693
"1937" 1415992 695
"1938" 1416683 691
"1939" 1417413 730
"1940" 1418141 728
"1941" 1418867 726
"1942" 1419599 732
"1943" 1420354 755
"1944" 1421092 738
"1945" 1421816 724
"1946" 1422548 732
"1947" 1423270 722
"1948" 1423992 722
"1949" 1424697 705
"1950" 1425417 720
"1951" 1426133 716
"1952" 1426843 710
"1953" 1427552 709
"1954" 1428272 720
"1955" 1429002 730
"1956" 1429716 714
"1957" 1430442 726
"1958" 1431158 716
"1959" 1431868 710
"1960" 1432571 703
"1961" 1433291 720
"1962" 1434013 722
"1963" 1434729 716
"1964" 1435447 718
"1965" 1436171 724
"1966" 1436891 720
"1967" 1437594 703
"1968" 1438314 720
"1969" 1439032 718
"1970" 1439748 716
"1971" 1440462 714
"1972" 1441196 734
"1973" 1441918 722
"1974" 1442648 730
"1975" 1443368 720
"1976" 1444082 714
"1977" 1444808 726
"1978" 1445518 710
"1979" 1446240 722
"1980" 1446945 705
"1981" 1447655 710
"1982" 1448358 703
"1983" 1449070 712
"1984" 1449782 712
"1985" 1450498 716
"1986" 1451220 722
"1987" 1451938 718
"1988" 1452666 728
"1989" 1453384 718
"1990" 1454094 710
"1991" 1454804 710
"1992" 1455518 714
"1993" 1456227 709
"1994" 1456941 714
"1995" 1457655 714
"1996" 1458362 707
"1997" 1459059 697
"1998" 1459762 703
"1999" 1460457 695
"2000" 1461146 689
"2001" 1461833 687
"2002" 1462534 701
"2003" 1463244 710
"2004" 1463962 718
"2005" 1464686 724
"2006" 1465400 714
"2007" 1466126 726
"2008" 1466858 732
"2009" 1467586 728
"2010" 1468300 714
"2011" 1469012 712
"2012" 1469719 707
"2013" 1470429 710
"2014" 1471128 699
"2015" 1471833 705
"2016" 1472532 699
"2017" 1473229 697
"2018" 1473930 701
"2019" 1474642 712
"2020" 1475349 707
"2021" 1476099 750
"2022" 1476858 759
"2023" 1477639 781
"2024" 1478441 802
"2025" 1479235 794
"2026" 1480016 781
"2027" 1480824 808
"2028" 1481618 794
"2029" 1482370 752
"2030" 1483116 746
"2031" 1483848 732
"2032" 1484566 718
"2033" 1485300 734
"2034" 1486016 716
"2035" 1486721 705
"2036" 1487430 709
"2037" 1488152 722
"2038" 1488861 709
"2039" 1489591 730
"2040" 1490313 722
"2041" 1491037 724
"2042" 1491767 730
"2043" 1492534 767
"2044" 1493262 728
"2045" 1493998 736
"2046" 1494730 732
"2047" 1495456 726
"2048" 1496190 734
"2049" 1496924 734
"2050" 1497676 752
"2051" 1498400 724
"2052" 1499128 728
"2053" 1499835 707
"2054" 1500549 714
"2055" 1501248 699
"2056" 1501939 691
"2057" 1502638 699
"2058" 1503350 712
"2059" 1504074 724
"2060" 1504786 712
"2061" 1505520 734
"2062" 1506250 730
"2063" 1506980 730
"2064" 1507708 728
"2065" 1508450 742
"2066" 1509188 738
"2067" 1509920 732
"2068" 1510644 724
"2069" 1511370 726
"2070" 1512084 714
"2071" 1512804 720
"2072" 1513540 736
"2073" 1514252 712
"2074" 1514966 714
"2075" 1515671 705
"2076" 1516387 716
"2077" 1517099 712
"2078" 1517800 701
"2079" 1518487 687
"2080" 1519207 720
"2081" 1519902 695
"2082" 1520591 689
"2083" 1521288 697
"2084" 1522018 730
"2085" 1522728 710
"2086" 1523438 710
"2087" 1524145 707
"2088" 1524873 728
"2089" 1525585 712
"2090" 1526286 701
"2091" 1526995 709
"2092" 1527721 726
"2093" 1528441 720
"2094" 1529144 703
"2095" 1529856 712
"2096" 1530568 712
"2097" 1531269 701
"2098" 1531956 687
"2099" 1532661 705
"2100" 1533381 720
"2101" 1534107 726
"2102" 1534829 722
"2103" 1535584 755
"2104" 1536336 752
"2105" 1537086 750
"2106" 1537841 755
"2107" 1538600 759
"2108" 1539326 726
"2109" 1540031 705
"2110" 1540716 685
"2111" 1541411 695
"2112" 1542112 701
"2113" 1542807 695
"2114" 1543533 726
"2115" 1544277 744
"2116" 1545019 742
"2117" 1545763 744
"2118" 1546507 744
"2119" 1547247 740
"2120" 1547975 728
"2121" 1548713 738
"2122" 1549455 742
"2123" 1550189 734
"2124" 1550931 742
"2125" 1551706 775
"2126" 1552467 761
"2127" 1553226 759
"2128" 1553999 773
"2129" 1554745 746
"2130" 1555471 726
"2131" 1556183 712
"2132" 1556901 718
"2133" 1557625 724
"2134" 1558343 718
"2135" 1559050 707
"2136" 1559778 728
"2137" 1560498 720
"2138" 1561207 709
"2139" 1561914 707
"2140" 1562624 710
"2141" 1563334 710
"2142" 1564029 695
"2143" 1564736 707
"2144" 1565439 703
"2145" 1566142 703
"2146" 1566856 714
"2147" 1567588 732
"2148" 1568322 734
"2149" 1569064 742
"2150" 1569788 724
"2151" 1570524 736
"2152" 1571246 722
"2153" 1571964 718
"2154" 1572674 710
"2155" 1573392 718
"2156" 1574110 718
"2157" 1574815 705
"2158" 1575520 705
"2159" 1576221 701
"2160" 1576916 695
"2161" 1577591 675
"2162" 1578276 685
"2163" 1578969 693
"2164" 1579652 683
"2165" 1580347 695
"2166" 1581046 699
"2167" 1581743 697
"2168" 1582465 722
"2169" 1583189 724
"2170" 1583925 736
"2171" 1584657 732
"2172" 1585401 744
"2173" 1586121 720
"2174" 1586845 724
"2175" 1587554 709
"2176" 1588266 712
"2177" 1588971 705
"2178" 1589668 697
"2179" 1590380 712
"2180" 1591106 726
"2181" 1591832 726
"2182" 1592554 722
"2183" 1593298 744
"2184" 1594026 728
"2185" 1594758 732
"2186" 1595484 726
"2187" 1596218 734
"2188" 1596950 732
"2189" 1597690 740
"2190" 1598424 734
"2191" 1599144 720
"2192" 1599874 730
"2193" 1600586 712
"2194" 1601328 742
"2195" 1602068 740
"2196" 1602800 732
"2197" 1603530 730
"2198" 1604280 750
"2199" 1605014 734
"2200" 1605740 726
"2201" 1606495 755
"2202" 1607264 769
"2203" 1608008 744
"2204" 1608742 734
"2205" 1609480 738
"2206" 1610212 732
"2207" 1610946 734
"2208" 1611658 712
"2209" 1612363 705
"2210" 1613075 712
"2211" 1613795 720
"2212" 1614511 716
"2213" 1615257 746
"2214" 1616003 746
"2215" 1616749 746
"2216" 1617504 755
"2217" 1618257 753
"2218" 1619012 755
"2219" 1619762 750
"2220" 1620531 769
"2221" 1621288 757
"2222" 1622032 744
"2223" 1622764 732
"2224" 1623504 740
"2225" 1624254 750
"2226" 1624986 732
"2227" 1625734 748
"2228" 1626497 763
"2229" 1627256 759
"2230" 1628015 759
"2231" 1628786 771
"2232" 1629543 757
"2233" 1630304 761
"2234" 1631075 771
"2235" 1631838 763
"2236" 1632590 752
"2237" 1633355 765
"2238" 1634110 755
"2239" 1634846 736
"2240" 1635580 734
"2241" 1636312 732
"2242" 1637038 726
"2243" 1637766 728
"2244" 1638492 726
"2245" 1639230 738
"2246" 1639978 748
"2247" 1640718 740
"2248" 1641458 740
"2249" 1642198 740
"2250" 1642928 730
"2251" 1643631 703
"2252" 1644347 716
"2253" 1645056 709
"2254" 1645755 699
"2255" 1646456 701
"2256" 1647200 744
"2257" 1647930 730
"2258" 1648650 720
"2259" 1649370 720
"2260" 1650116 746
"2261" 1650852 736
"2262" 1651572 720
"2263" 1652296 724
"2264" 1653032 736
"2265" 1653762 730
"2266" 1654490 728
"2267" 1655224 734
"2268" 1655958 734
"2269" 1656686 728
"2270" 1657412 726
"2271" 1658189 777
"2272" 1659011 822
"2273" 1659774 763
"2274" 1660545 771
"2275" 1661283 738
"2276" 1662003 720
"2277" 1662727 724
"2278" 1663439 712
"2279" 1664144 705
"2280" 1664851 707
"2281" 1665544 693
"2282" 1666223 679
"2283" 1666896 673
"2284" 1667552 656
"2285" 1668190 638
"2286" 1668818 628
"2287" 1669464 646
"2288" 1670143 679
"2289" 1670846 703
"2290" 1671551 705
"2291" 1672291 740
"2292" 1673068 777
"2293" 1673829 761
"2294" 1674625 796
"2295" 1675443 818
"2296" 1676232 789
"2297" 1676982 750
"2298" 1677718 736
"2299" 1678436 718
"2300" 1679141 705
"2301" 1679848 707
"2302" 1680541 693
"2303" 1681240 699
"2304" 1681950 710
"2305" 1682664 714
"2306" 1683374 710
"2307" 1684122 748
"2308" 1684868 746
"2309" 1685606 738
"2310" 1686338 732
"2311" 1687090 752
"2312" 1687842 752
"2313" 1688574 732
"2314" 1689296 722
"2315" 1690026 730
"2316" 1690764 738
"2317" 1691492 728
"2318" 1692222 730
"2319" 1692985 763
"2320" 1693748 763
"2321" 1694505 757
"2322" 1695247 742
"2323" 1695993 746
"2324" 1696731 738
"2325" 1697463 732
"2326" 1698183 720
"2327" 1698923 740
"2328" 1699657 734
"2329" 1700391 734
"2330" 1701121 730
"2331" 1701869 748
"2332" 1702605 736
"2333" 1703331 726
"2334" 1704047 716
"2335" 1704763 716
"2336" 1705470 707
"2337" 1706157 687
"2338" 1706873 716
"2339" 1707628 755
"2340" 1708372 744
"2341" 1709141 769
"2342" 1709935 794
"2343" 1710745 810
"2344" 1711520 775
"2345" 1712307 787
"2346" 1713064 757
"2347" 1713798 734
"2348" 1714518 720
"2349" 1715232 714
"2350" 1715954 722
"2351" 1716678 724
"2352" 1717398 720
"2353" 1718108 710
"2354" 1718852 744
"2355" 1719602 750
"2356" 1720352 750
"2357" 1721104 752
"2358" 1721879 775
"2359" 1722636 757
"2360" 1723388 752
"2361" 1724122 734
"2362" 1724881 759
"2363" 1725627 746
"2364" 1726361 734
"2365" 1727081 720
"2366" 1727819 738
"2367" 1728561 742
"2368" 1729295 734
"2369" 1730015 720
"2370" 1730759 744
"2371" 1731495 736
"2372" 1732219 724
"2373" 1732929 710
"2374" 1733651 722
"2375" 1734352 701
"2376" 1735033 681
"2377" 1735679 646
"2378" 1736321 642
"2379" 1736973 652
"2380" 1737666 693
"2381" 1738361 695
"2382" 1739052 691
"2383" 1739749 697
"2384" 1740475 726
"2385" 1741185 710
"2386" 1741890 705
"2387" 1742587 697
"2388" 1743292 705
"2389" 1743993 701
"2390" 1744680 687
"2391" 1745355 675
"2392" 1746036 681
"2393" 1746735 699
"2394" 1747434 699
"2395" 1748121 687
"2396" 1748824 703
"2397" 1749550 726
"2398" 1750270 720
"2399" 1750980 710
"2400" 1751690 710
"2401" 1752416 726
"2402" 1753175 759
"2403" 1753913 738
"2404" 1754635 722
"2405" 1755359 724
"2406" 1756107 748
"2407" 1756855 748
"2408" 1757597 742
"2409" 1758335 738
"2410" 1759087 752
"2411" 1759837 750
"2412" 1760569 732
"2413" 1761293 724
"2414" 1762009 716
"2415" 1762729 720
"2416" 1763432 703
"2417" 1764121 689
"2418" 1764816 695
"2419" 1765523 707
"2420" 1766230 707
"2421" 1766923 693
"2422" 1767614 691
"2423" 1768334 720
"2424" 1769054 720
"2425" 1769766 712
"2426" 1770469 703
"2427" 1771185 716
"2428" 1771890 705
"2429" 1772583 693
"2430" 1773272 689
"2431" 1773988 716
"2432" 1774700 712
"2433" 1775397 697
"2434" 1776090 693
"2435" 1776808 718
"2436" 1777518 710
"2437" 1778221 703
"2438" 1778916 695
"2439" 1779632 716
"2440" 1780337 705
"2441" 1781032 695
"2442" 1781727 695
"2443" 1782437 710
"2444" 1783134 697
"2445" 1783811 677
"2446" 1784486 675
"2447" 1785181 695
"2448" 1785862 681
"2449" 1786528 666
"2450" 1787184 656
"2451" 1787869 685
"2452" 1788552 683
"2453" 1789245 693
"2454" 1789942 697
"2455" 1790674 732
"2456" 1791390 716
"2457" 1792102 712
"2458" 1792820 718
"2459" 1793558 738
"2460" 1794278 720
"2461" 1795000 722
"2462" 1795718 718
"2463" 1796442 724
"2464" 1797156 714
"2465" 1797857 701
"2466" 1798564 707
"2467" 1799284 720
"2468" 1800004 720
"2469" 1800713 709
"2470" 1801435 722
"2471" 1802161 726
"2472" 1802875 714
"2473" 1803574 699
"2474" 1804281 707
"2475" 1804988 707
"2476" 1805679 691
"2477" 1806372 693
"2478" 1807077 705
"2479" 1807778 701
"2480" 1808461 683
"2481" 1809154 693
"2482" 1809859 705
"2483" 1810568 709
"2484" 1811263 695
"2485" 1811975 712
"2486" 1812689 714
"2487" 1813403 714
"2488" 1814104 701
"2489" 1814828 724
"2490" 1815570 742
"2491" 1816298 728
"2492" 1817016 718
"2493" 1817730 714
"2494" 1818435 705
"2495" 1819145 710
"2496" 1819842 697
"2497" 1820558 716
"2498" 1821276 718
"2499" 1821992 716
"2500" 1822704 712
"2501" 1823448 744
"2502" 1824205 757
"2503" 1824941 736
"2504" 1825663 722
"2505" 1826383 720
"2506" 1827092 709
"2507" 1827791 699
"2508" 1828472 681
"2509" 1829169 697
"2510" 1829870 701
"2511" 1830569 699
"2512" 1831254 685
"2513" 1831966 712
"2514" 1832680 714
"2515" 1833383 703
"2516" 1834082 699
"2517" 1834806 724
"2518" 1835520 714
"2519" 1836219 699
"2520" 1836918 699
"2521" 1837634 716
"2522" 1838339 705
"2523" 1839040 701
"2524" 1839731 691
"2525" 1840445 714
"2526" 1841154 709
"2527" 1841851 697
"2528" 1842554 703
"2529" 1843292 738
"2530" 1844014 722
"2531" 1844732 718
"2532" 1845446 714
"2533" 1846180 734
"2534" 1846892 712
"2535" 1847595 703
"2536" 1848286 691
"2537" 1849004 718
"2538" 1849713 709
"2539" 1850410 697
"2540" 1851109 699
"2541" 1851818 709
"2542" 1852532 714
"2543" 1853229 697
"2544" 1853930 701
"2545" 1854625 695
"2546" 1855318 693
"2547" 1856001 683
"2548" 1856723 722
"2549" 1857439 716
"2550" 1858151 712
"2551" 1858861 710
"2552" 1859587 726
"2553" 1860307 720
"2554" 1861008 701
"2555" 1861703 695
"2556" 1862412 709
"2557" 1863119 707
"2558" 1863810 691
"2559" 1864499 689
"2560" 1865196 697
"2561" 1865897 701
"2562" 1866594 697
"2563" 1867314 720
"2564" 1868040 726
"2565" 1868756 716
"2566" 1869476 720
"2567" 1870216 740
"2568" 1870954 738
"2569" 1871666 712
"2570" 1872367 701
"2571" 1873077 710
"2572" 1873776 699
"2573" 1874463 687
"2574" 1875148 685
"2575" 1875860 712
"2576" 1876569 709
"2577" 1877272 703
"2578" 1877967 695
"2579" 1878687 720
"2580" 1879409 722
"2581" 1880116 707
"2582" 1880817 701
"2583" 1881520 703
"2584" 1882223 703
"2585" 1882904 681
"2586" 1883575 671
"2587" 1884239 664
"2588" 1884885 646
"2589" 1885512 627
"2590" 1886150 638
"2591" 1886808 658
"2592" 1887487 679
"2593" 1888170 683
"2594" 1888871 701
"2595" 1889578 707
"2596" 1890275 697
"2597" 1890982 707
"2598" 1891689 707
"2599" 1892403 714
"2600" 1893106 703
"2601" 1893791 685
"2602" 1894460 669
"2603" 1895124 664
"2604" 1895795 671
"2605" 1896472 677
"2606" 1897140 668
"2607" 1897825 685
"2608" 1898535 710
"2609" 1899245 710
"2610" 1899961 716
"2611" 1900673 712
"2612" 1901391 718
"2613" 1902092 701
"2614" 1902791 699
"2615" 1903486 695
"2616" 1904187 701
"2617" 1904872 685
"2618" 1905553 681
"2619" 1906230 677
"2620" 1906917 687
"2621" 1907594 677
"2622" 1908265 671
"2623" 1908915 650
"2624" 1909561 646
"2625" 1910197 636
"2626" 1910822 625
"2627" 1911449 627
"2628" 1912081 632
"2629" 1912715 634
"2630" 1913365 650
"2631" 1914040 675
"2632" 1914709 669
"2633" 1915388 679
"2634" 1916059 671
"2635" 1916748 689
"2636" 1917447 699
"2637" 1918132 685
"2638" 1918807 675
"2639" 1919475 668
"2640" 1920154 679
"2641" 1920859 705
"2642" 1921554 695
"2643" 1922237 683
"2644" 1922914 677
"2645" 1923601 687
"2646" 1924286 685
"2647" 1924948 662
"2648" 1925621 673
"2649" 1926316 695
"2650" 1927013 697
"2651" 1927700 687
"2652" 1928377 677
"2653" 1929064 687
"2654" 1929761 697
"2655" 1930450 689
"2656" 1931151 701
"2657" 1931846 695
"2658" 1932555 709
"2659" 1933262 707
"2660" 1933963 701
"2661" 1934668 705
"2662" 1935375 707
"2663" 1936085 710
"2664" 1936782 697
"2665" 1937477 695
"2666" 1938162 685
"2667" 1938849 687
"2668" 1939536 687
"2669" 1940205 669
"2670" 1940874 669
"2671" 1941553 679
"2672" 1942230 677
"2673" 1942909 679
"2674" 1943575 666
"2675" 1944252 677
"2676" 1944945 693
"2677" 1945624 679
"2678" 1946286 662
"2679" 1946944 658
"2680" 1947602 658
"2681" 1948285 683
"2682" 1948962 677
"2683" 1949631 669
"2684" 1950269 638
"2685" 1950917 648
"2686" 1951540 623
"2687" 1952145 605
"2688" 1952744 599
"2689" 1953331 587
"2690" 1953920 589
"2691" 1954507 587
"2692" 1955114 607
"2693" 1955778 664
"2694" 1956465 687
"2695" 1957146 681
"2696" 1957856 710
"2697" 1958611 755
"2698" 1959421 810
"2699" 1960247 826
"2700" 1960991 744
"2701" 1961778 787
"2702" 1962574 796
"2703" 1963363 789
"2704" 1964142 779
"2705" 1964884 742
"2706" 1965634 750
"2707" 1966376 742
"2708" 1967141 765
"2709" 1967873 732
"2710" 1968611 738
"2711" 1969351 740
"2712" 1970108 757
"2713" 1970842 734
"2714" 1971584 742
"2715" 1972351 767
"2716" 1973108 757
"2717" 1973848 740
"2718" 1974584 736
"2719" 1975310 726
"2720" 1976048 738
"2721" 1976768 720
"2722" 1977486 718
"2723" 1978196 710
"2724" 1978916 720
"2725" 1979617 701
"2726" 1980327 710
"2727" 1981030 703
"2728" 1981750 720
"2729" 1982464 714
"2730" 1983184 720
"2731" 1983902 718
"2732" 1984636 734
"2733" 1985352 716
"2734" 1986074 722
"2735" 1986798 724
"2736" 1987522 724
"2737" 1988242 720
"2738" 1988970 728
"2739" 1989688 718
"2740" 1990397 709
"2741" 1991121 724
"2742" 1991845 724
"2743" 1992583 738
"2744" 1993297 714
"2745" 1994017 720
"2746" 1994729 712
"2747" 1995443 714
"2748" 1996152 709
"2749" 1996859 707
"2750" 1997571 712
"2751" 1998278 707
"2752" 1998996 718
"2753" 1999708 712
"2754" 2000432 724
"2755" 2001146 714
"2756" 2001858 712
"2757" 2002567 709
"2758" 2003287 720
"2759" 2003997 710
"2760" 2004702 705
"2761" 2005403 701
"2762" 2006119 716
"2763" 2006826 707
"2764" 2007536 710
"2765" 2008245 709
"2766" 2008971 726
"2767" 2009697 726
"2768" 2010431 734
"2769" 2011181 750
"2770" 2011931 750
"2771" 2012696 765
"2772" 2013471 775
"2773" 2014244 773
"2774" 2014984 740
"2775" 2015726 742
"2776" 2016454 728
"2777" 2017186 732
"2778" 2017904 718
"2779" 2018638 734
"2780" 2019370 732
"2781" 2020096 726
"2782" 2020830 734
"2783" 2021554 724
"2784" 2022284 730
"2785" 2023000 716
"2786" 2023712 712
"2787" 2024421 709
"2788" 2025128 707
"2789" 2025835 707
"2790" 2026542 707
"2791" 2027243 701
"2792" 2027959 716
"2793" 2028683 724
"2794" 2029397 714
"2795" 2030113 716
"2796" 2030831 718
"2797" 2031553 722
"2798" 2032269 716
"2799" 2032987 718
"2800" 2033713 726
"2801" 2034437 724
"2802" 2035163 726
"2803" 2035868 705
"2804" 2036594 726
"2805" 2037334 740
"2806" 2038070 736
"2807" 2038812 742
"2808" 2039571 759
"2809" 2040321 750
"2810" 2041055 734
"2811" 2041777 722
"2812" 2042519 742
"2813" 2043257 738
"2814" 2043981 724
"2815" 2044705 724
"2816" 2045455 750
"2817" 2046181 726
"2818" 2046899 718
"2819" 2047617 718
"2820" 2048343 726
"2821" 2049059 716
"2822" 2049766 707
"2823" 2050467 701
"2824" 2051193 726
"2825" 2051911 718
"2826" 2052621 710
"2827" 2053337 716
"2828" 2054051 714
"2829" 2054761 710
"2830" 2055464 703
"2831" 2056173 709
"2832" 2056882 709
"2833" 2057594 712
"2834" 2058297 703
"2835" 2059023 726
"2836" 2059749 726
"2837" 2060469 720
"2838" 2061176 707
"2839" 2061910 734
"2840" 2062640 730
"2841" 2063356 716
"2842" 2064072 716
"2843" 2064800 728
"2844" 2065518 718
"2845" 2066228 710
"2846" 2066944 716
"2847" 2067656 712
"2848" 2068376 720
"2849" 2069100 724
"2850" 2069846 746
"2851" 2070576 730
"2852" 2071288 712
"2853" 2071998 710
"2854" 2072707 709
"2855" 2073412 705
"2856" 2074099 687
"2857" 2074802 703
"2858" 2075493 691
"2859" 2076190 697
"2860" 2076877 687
"2861" 2077587 710
"2862" 2078297 710
"2863" 2079002 705
"2864" 2079705 703
"2865" 2080425 720
"2866" 2081139 714
"2867" 2081842 703
"2868" 2082539 697
"2869" 2083244 705
"2870" 2083945 701
"2871" 2084634 689
"2872" 2085317 683
"2873" 2086010 693
"2874" 2086701 691
"2875" 2087374 673
"2876" 2088051 677
"2877" 2088730 679
"2878" 2089427 697
"2879" 2090114 687
"2880" 2090795 681
"2881" 2091468 673
"2882" 2092137 669
"2883" 2092787 650
"2884" 2093435 648
"2885" 2094069 634
"2886" 2094699 630
"2887" 2095349 650
"2888" 2095995 646
"2889" 2096655 660
"2890" 2097365 710
"2891" 2098120 755
"2892" 2098844 724
"2893" 2099586 742
"2894" 2100326 740
"2895" 2101056 730
"2896" 2101766 710
"2897" 2102469 703
"2898" 2103158 689
"2899" 2103827 669
"2900" 2104512 685
"2901" 2105230 718
"2902" 2105956 726
"2903" 2106698 742
"2904" 2107410 712
"2905" 2108142 732
"2906" 2108890 748
"2907" 2109688 798
"2908" 2110449 761
"2909" 2111242 793
"2910" 2112023 781
"2911" 2112761 738
"2912" 2113505 744
"2913" 2114217 712
"2914" 2114912 695
"2915" 2115607 695
"2916" 2116288 681
"2917" 2116961 673
"2918" 2117660 699
"2919" 2118367 707
"2920" 2119072 705
"2921" 2119767 695
"2922" 2120493 726
"2923" 2121245 752
"2924" 2121975 730
"2925" 2122697 722
"2926" 2123402 705
"2927" 2124134 732
"2928" 2124852 718
"2929" 2125549 697
"2930" 2126228 679
"2931" 2126923 695
"2932" 2127641 718
"2933" 2128365 724
"2934" 2129068 703
"2935" 2129765 697
"2936" 2130436 671
"2937" 2131084 648
"2938" 2131769 685
"2939" 2132472 703
"2940" 2133169 697
"2941" 2133846 677
"2942" 2134502 656
"2943" 2135168 666
"2944" 2135841 673
"2945" 2136524 683
"2946" 2137221 697
"2947" 2137961 740
"2948" 2138740 779
"2949" 2139486 746
"2950" 2140259 773
"2951" 2141032 773
"2952" 2141811 779
"2953" 2142549 738
"2954" 2143287 738
"2955" 2144023 736
"2956" 2144778 755
"2957" 2145512 734
"2958" 2146256 744
"2959" 2146988 732
"2960" 2147740 752
"2961" 2148472 732
"2962" 2149216 744
"2963" 2149942 726
"2964" 2150690 748
"2965" 2151418 728
"2966" 2152148 730
"2967" 2152882 734
"2968" 2153647 765
"2969" 2154391 744
"2970" 2155139 748
"2971" 2155898 759
"2972" 2156689 791
"2973" 2157446 757
"2974" 2158201 755
"2975" 2158958 757
"2976" 2159717 759
"2977" 2160441 724
"2978" 2161173 732
"2979" 2161917 744
"2980" 2162682 765
"2981" 2163428 746
"2982" 2164160 732
"2983" 2164892 732
"2984" 2165622 730
"2985" 2166340 718
"2986" 2167037 697
"2987" 2167749 712
"2988" 2168473 724
"2989" 2169191 718
"2990" 2169898 707
"2991" 2170630 732
"2992" 2171366 736
"2993" 2172104 738
"2994" 2172842 738
"2995" 2173599 757
"2996" 2174347 748
"2997" 2175085 738
"2998" 2175829 744
"2999" 2176569 740
"3000" 2177315 746
"3001" 2178051 736
"3002" 2178787 736
"3003" 2179509 722
"3004" 2180208 699
"3005" 2180924 716
"3006" 2181634 710
"3007" 2182344 710
"3008" 2183045 701
"3009" 2183755 710
"3010" 2184465 710
"3011" 2185158 693
"3012" 2185872 714
"3013" 2186582 710
"3014" 2187298 716
"3015" 2188003 705
"3016" 2188731 728
"3017" 2189447 716
"3018" 2190150 703
"3019" 2190860 710
"3020" 2191572 712
"3021" 2192286 714
"3022" 2192983 697
"3023" 2193707 724
"3024" 2194419 712
"3025" 2195128 709
"3026" 2195825 697
"3027" 2196547 722
"3028" 2197252 705
"3029" 2197947 695
"3030" 2198646 699
"3031" 2199351 705
"3032" 2200071 720
"3033" 2200797 726
"3034" 2201547 750
"3035" 2202271 724
"3036" 2202983 712
"3037" 2203693 710
"3038" 2204413 720
"3039" 2205137 724
"3040" 2205853 716
"3041" 2206577 724
"3042" 2207299 722
"3043" 2208015 716
"3044" 2208737 722
"3045" 2209475 738
"3046" 2210213 738
"3047" 2210951 738
"3048" 2211706 755
"3049" 2212438 732
"3050" 2213150 712
"3051" 2213849 699
"3052" 2214554 705
"3053" 2215263 709
"3054" 2215950 687
"3055" 2216664 714
"3056" 2217392 728
"3057" 2218114 722
"3058" 2218832 718
"3059" 2219572 740
"3060" 2220310 738
"3061" 2221034 724
"3062" 2221768 734
"3063" 2222494 726
"3064" 2223226 732
"3065" 2223942 716
"3066" 2224672 730
"3067" 2225394 722
"3068" 2226106 712
"3069" 2226803 697
"3070" 2227519 716
"3071" 2228237 718
"3072" 2228949 712
"3073" 2229675 726
"3074" 2230417 742
"3075" 2231161 744
"3076" 2231901 740
"3077" 2232645 744
"3078" 2233365 720
"3079" 2234068 703
"3080" 2234765 697
"3081" 2235460 695
"3082" 2236155 695
"3083" 2236823 668
"3084" 2237516 693
"3085" 2238225 709
"3086" 2238941 716
"3087" 2239644 703
"3088" 2240366 722
"3089" 2241090 724
"3090" 2241826 736
"3091" 2242560 734
"3092" 2243306 746
"3093" 2244026 720
"3094" 2244736 710
"3095" 2245441 705
"3096" 2246163 722
"3097" 2246877 714
"3098" 2247586 709
"3099" 2248298 712
"3100" 2249008 710
"3101" 2249724 716
"3102" 2250427 703
"3103" 2251151 724
"3104" 2251863 712
"3105" 2252560 697
"3106" 2253261 701
"3107" 2253948 687
"3108" 2254635 687
"3109" 2255318 683
"3110" 2256019 701
"3111" 2256718 699
"3112" 2257407 689
"3113" 2258110 703
"3114" 2258815 705
"3115" 2259516 701
"3116" 2260189 673
"3117" 2260862 673
"3118" 2261524 662
"3119" 2262164 640
"3120" 2262810 646
"3121" 2263450 640
"3122" 2264077 627
"3123" 2264709 632
"3124" 2265339 630
"3125" 2265966 627
"3126" 2266591 625
"3127" 2267229 638
"3128" 2267861 632
"3129" 2268503 642
"3130" 2269135 632
"3131" 2269783 648
"3132" 2270445 662
"3133" 2271116 671
"3134" 2271774 658
"3135" 2272453 679
"3136" 2273138 685
"3137" 2273825 687
"3138" 2274506 681
"3139" 2275218 712
"3140" 2275930 712
"3141" 2276623 693
"3142" 2277308 685
"3143" 2278017 709
"3144" 2278726 709
"3145" 2279419 693
"3146" 2280106 687
"3147" 2280815 709
"3148" 2281516 701
"3149" 2282207 691
"3150" 2282890 683
"3151" 2283591 701
"3152" 2284288 697
"3153" 2284979 691
"3154" 2285656 677
"3155" 2286365 709
"3156" 2287064 699
"3157" 2287741 677
"3158" 2288418 677
"3159" 2289107 689
"3160" 2289792 685
"3161" 2290456 664
"3162" 2291127 671
"3163" 2291824 697
"3164" 2292529 705
"3165" 2293220 691
"3166" 2293915 695
"3167" 2294627 712
"3168" 2295336 709
"3169" 2296029 693
"3170" 2296736 707
"3171" 2297445 709
"3172" 2298150 705
"3173" 2298851 701
"3174" 2299571 720
"3175" 2300287 716
"3176" 2300990 703
"3177" 2301700 710
"3178" 2302412 712
"3179" 2303122 710
"3180" 2303832 710
"3181" 2304560 728
"3182" 2305280 720
"3183" 2305985 705
"3184" 2306699 714
"3185" 2307421 722
"3186" 2308131 710
"3187" 2308818 687
"3188" 2309515 697
"3189" 2310210 695
"3190" 2310913 703
"3191" 2311592 679
"3192" 2312301 709
"3193" 2312998 697
"3194" 2313685 687
"3195" 2314362 677
"3196" 2315057 695
"3197" 2315754 697
"3198" 2316447 693
"3199" 2317173 726
"3200" 2317917 744
"3201" 2318657 740
"3202" 2319432 775
"3203" 2320205 773
"3204" 2320939 734
"3205" 2321694 755
"3206" 2322440 746
"3207" 2323156 716
"3208" 2323878 722
"3209" 2324583 705
"3210" 2325307 724
"3211" 2326027 720
"3212" 2326763 736
"3213" 2327501 738
"3214" 2328264 763
"3215" 2329004 740
"3216" 2329746 742
"3217" 2330482 736
"3218" 2331216 734
"3219" 2331930 714
"3220" 2332637 707
"3221" 2333338 701
"3222" 2334048 710
"3223" 2334758 710
"3224" 2335457 699
"3225" 2336158 701
"3226" 2336857 699
"3227" 2337558 701
"3228" 2338249 691
"3229" 2338981 732
"3230" 2339711 730
"3231" 2340447 736
"3232" 2341175 728
"3233" 2341893 718
"3234" 2342611 718
"3235" 2343294 683
"3236" 2343993 699
"3237" 2344680 687
"3238" 2345359 679
"3239" 2346025 666
"3240" 2346722 697
"3241" 2347417 695
"3242" 2348100 683
"3243" 2348787 687
"3244" 2349503 716
"3245" 2350231 728
"3246" 2350951 720
"3247" 2351669 718
"3248" 2352399 730
"3249" 2353119 720
"3250" 2353822 703
"3251" 2354525 703
"3252" 2355230 705
"3253" 2355933 703
"3254" 2356604 671
"3255" 2357289 685
"3256" 2357980 691
"3257" 2358671 691
"3258" 2359342 671
"3259" 2360021 679
"3260" 2360718 697
"3261" 2361427 709
"3262" 2362112 685
"3263" 2362819 707
"3264" 2363535 716
"3265" 2364249 714
"3266" 2364956 707
"3267" 2365668 712
"3268" 2366380 712
"3269" 2367079 699
"3270" 2367754 675
"3271" 2368455 701
"3272" 2369144 689
"3273" 2369819 675
"3274" 2370492 673
"3275" 2371202 710
"3276" 2371918 716
"3277" 2372630 712
"3278" 2373348 718
"3279" 2374070 722
"3280" 2374788 718
"3281" 2375485 697
"3282" 2376197 712
"3283" 2376896 699
"3284" 2377577 681
"3285" 2378250 673
"3286" 2378943 693
"3287" 2379630 687
"3288" 2380294 664
"3289" 2380967 673
"3290" 2381666 699
"3291" 2382373 707
"3292" 2383074 701
"3293" 2383781 707
"3294" 2384501 720
"3295" 2385217 716
"3296" 2385922 705
"3297" 2386621 699
"3298" 2387320 699
"3299" 2388005 685
"3300" 2388667 662
"3301" 2389354 687
"3302" 2390047 693
"3303" 2390736 689
"3304" 2391413 677
"3305" 2392094 681
"3306" 2392781 687
"3307" 2393470 689
"3308" 2394138 668
"3309" 2394819 681
"3310" 2395512 693
"3311" 2396201 689
"3312" 2396878 677
"3313" 2397577 699
"3314" 2398274 697
"3315" 2398957 683
"3316" 2399634 677
"3317" 2400333 699
"3318" 2401032 699
"3319" 2401705 673
"3320" 2402369 664
"3321" 2403050 681
"3322" 2403727 677
"3323" 2404381 654
"3324" 2405052 671
"3325" 2405751 699
"3326" 2406446 695
"3327" 2407135 689
"3328" 2407840 705
"3329" 2408576 736
"3330" 2409294 718
"3331" 2409985 691
"3332" 2410672 687
"3333" 2411355 683
"3334" 2412032 677
"3335" 2412678 646
"3336" 2413344 666
"3337" 2414012 668
"3338" 2414672 660
"3339" 2415328 656
"3340" 2416015 687
"3341" 2416700 685
"3342" 2417368 668
"3343" 2418045 677
"3344" 2418738 693
"3345" 2419427 689
"3346" 2420096 669
"3347" 2420775 679
"3348" 2421464 689
"3349" 2422147 683
"3350" 2422816 669
"3351" 2423511 695
"3352" 2424204 693
"3353" 2424889 685
"3354" 2425570 681
"3355" 2426275 705
"3356" 2426978 703
"3357" 2427679 701
"3358" 2428388 709
"3359" 2429108 720
"3360" 2429809 701
"3361" 2430508 699
"3362" 2431213 705
"3363" 2431922 709
"3364" 2432617 695
"3365" 2433292 675
"3366" 2433971 679
"3367" 2434640 669
"3368" 2435300 660
"3369" 2435948 648
"3370" 2436616 668
"3371" 2437293 677
"3372" 2437964 671
"3373" 2438635 671
"3374" 2439322 687
"3375" 2440017 695
"3376" 2440710 693
"3377" 2441407 697
"3378" 2442108 701
"3379" 2442809 701
"3380" 2443506 697
"3381" 2444205 699
"3382" 2444896 691
"3383" 2445575 679
"3384" 2446260 685
"3385" 2446939 679
"3386" 2447595 656
"3387" 2448255 660
"3388" 2448926 671
"3389" 2449594 668
"3390" 2450256 662
"3391" 2450933 677
"3392" 2451606 673
"3393" 2452266 660
"3394" 2452932 666
"3395" 2453603 671
"3396" 2454265 662
"3397" 2454909 644
"3398" 2455555 646
"3399" 2456199 644
"3400" 2456826 627
"3401" 2457460 634
"3402" 2458100 640
"3403" 2458732 632
"3404" 2459362 630
"3405" 2460008 646
"3406" 2460652 644
"3407" 2461284 632
"3408" 2461916 632
"3409" 2462562 646
"3410" 2463202 640
"3411" 2463834 632
"3412" 2464466 632
"3413" 2465108 642
"3414" 2465746 638
"3415" 2466380 634
"3416" 2467034 654
"3417" 2467690 656
"3418" 2468342 652
"3419" 2469004 662
"3420" 2469666 662
"3421" 2470322 656
"3422" 2470966 644
"3423" 2471620 654
"3424" 2472276 656
"3425" 2472924 648
"3426" 2473570 646
"3427" 2474226 656
"3428" 2474876 650
"3429" 2475520 644
"3430" 2476176 656
"3431" 2476840 664
"3432" 2477502 662
"3433" 2478154 652
"3434" 2478818 664
"3435" 2479493 675
"3436" 2480170 677
"3437" 2480845 675
"3438" 2481526 681
"3439" 2482197 671
"3440" 2482853 656
"3441" 2483503 650
"3442" 2484165 662
"3443" 2484817 652
"3444" 2485461 644
"3445" 2486132 671
"3446" 2486800 668
"3447" 2487464 664
"3448" 2488149 685
"3449" 2488844 695
"3450" 2489531 687
"3451" 2490210 679
"3452" 2490895 685
"3453" 2491570 675
"3454" 2492238 668
"3455" 2492888 650
"3456" 2493550 662
"3457" 2494208 658
"3458" 2494860 652
"3459" 2495526 666
"3460" 2496192 666
"3461" 2496856 664
"3462" 2497525 669
"3463" 2498204 679
"3464" 2498881 677
"3465" 2499541 660
"3466" 2500212 671
"3467" 2500881 669
"3468" 2501535 654
"3469" 2502179 644
"3470" 2502833 654
"3471" 2503481 648
"3472" 2504111 630
"3473" 2504755 644
"3474" 2505407 652
"3475" 2506055 648
"3476" 2506699 644
"3477" 2507367 668
"3478" 2508040 673
"3479" 2508711 671
"3480" 2509382 671
"3481" 2510065 683
"3482" 2510742 677
"3483" 2511398 656
"3484" 2512064 666
"3485" 2512724 660
"3486" 2513362 638
"3487" 2513985 623
"3488" 2514623 638
"3489" 2515291 668
"3490" 2515962 671
"3491" 2516639 677
"3492" 2517338 699
"3493" 2518048 710
"3494" 2518760 712
"3495" 2519474 714
"3496" 2520179 705
"3497" 2520862 683
"3498" 2521512 650
"3499" 2522146 634
"3500" 2522771 625
"3501" 2523376 605
"3502" 2523989 613
"3503" 2524616 627
"3504" 2525241 625
"3505" 2525864 623
"3506" 2526512 648
"3507" 2527164 652
"3508" 2527818 654
"3509" 2528454 636
"3510" 2529082 628
"3511" 2529738 656
"3512" 2530407 669
"3513" 2531065 658
"3514" 2531738 673
"3515" 2532419 681
"3516" 2533098 679
"3517" 2533766 668
"3518" 2534447 681
"3519" 2535118 671
"3520" 2535774 656
"3521" 2536434 660
"3522" 2537105 671
"3523" 2537776 671
"3524" 2538440 664
"3525" 2539098 658
"3526" 2539769 671
"3527" 2540433 664
"3528" 2541087 654
"3529" 2541753 666
"3530" 2542421 668
"3531" 2543083 662
"3532" 2543752 669
"3533" 2544441 689
"3534" 2545128 687
"3535" 2545805 677
"3536" 2546498 693
"3537" 2547181 683
"3538" 2547847 666
"3539" 2548507 660
"3540" 2549178 671
"3541" 2549847 669
"3542" 2550503 656
"3543" 2551182 679
"3544" 2551861 679
"3545" 2552534 673
"3546" 2553211 677
"3547" 2553892 681
"3548" 2554577 685
"3549" 2555250 673
"3550" 2555933 683
"3551" 2556602 669
"3552" 2557258 656
"3553" 2557912 654
"3554" 2558585 673
"3555" 2559253 668
"3556" 2559901 648
"3557" 2560559 658
"3558" 2561225 666
"3559" 2561885 660
"3560" 2562541 656
"3561" 2563209 668
"3562" 2563884 675
"3563" 2564542 658
"3564" 2565210 668
"3565" 2565878 668
"3566" 2566540 662
"3567" 2567208 668
"3568" 2567885 677
"3569" 2568560 675
"3570" 2569226 666
"3571" 2569888 662
"3572" 2570540 652
"3573" 2571174 634
"3574" 2571816 642
"3575" 2572444 628
"3576" 2573084 640
"3577" 2573709 625
"3578" 2574306 597
"3579" 2574890 584
"3580" 2575462 572
"3581" 2576028 566
"3582" 2576598 570
"3583" 2577166 568
"3584" 2577736 570
"3585" 2578308 572
"3586" 2578892 584
"3587" 2579487 595
"3588" 2580104 617
"3589" 2580752 648
"3590" 2581451 699
"3591" 2582251 800
"3592" 2583045 794
"3593" 2583851 806
"3594" 2584669 818
"3595" 2585413 744
"3596" 2586149 736
"3597" 2586873 724
"3598" 2587583 710
"3599" 2588284 701
"3600" 2588961 677
"3601" 2589632 671
"3602" 2590329 697
"3603" 2591036 707
"3604" 2591756 720
"3605" 2592533 777
"3606" 2593271 738
"3607" 2594046 775
"3608" 2594850 804
"3609" 2595578 728
"3610" 2596310 732
"3611" 2597030 720
"3612" 2597740 710
"3613" 2598437 697
"3614" 2599130 693
"3615" 2599807 677
"3616" 2600502 695
"3617" 2601197 695
"3618" 2601896 699
"3619" 2602593 697
"3620" 2603309 716
"3621" 2604014 705
"3622" 2604717 703
"3623" 2605410 693
"3624" 2606117 707
"3625" 2606818 701
"3626" 2607515 697
"3627" 2608212 697
"3628" 2608926 714
"3629" 2609627 701
"3630" 2610318 691
"3631" 2611019 701
"3632" 2611718 699
"3633" 2612411 693
"3634" 2613098 687
"3635" 2613795 697
"3636" 2614496 701
"3637" 2615185 689
"3638" 2615876 691
"3639" 2616596 720
"3640" 2617322 726
"3641" 2618029 707
"3642" 2618720 691
"3643" 2619415 695
"3644" 2620102 687
"3645" 2620771 669
"3646" 2621433 662
"3647" 2622110 677
"3648" 2622791 681
"3649" 2623451 660
"3650" 2624111 660
"3651" 2624796 685
"3652" 2625477 681
"3653" 2626135 658
"3654" 2626795 660
"3655" 2627480 685
"3656" 2628161 681
"3657" 2628834 673
"3658" 2629517 683
"3659" 2630220 703
"3660" 2630909 689
"3661" 2631578 669
"3662" 2632246 668
"3663" 2632923 677
"3664" 2633585 662
"3665" 2634210 625
"3666" 2634815 605
"3667" 2635422 607
"3668" 2636068 646
"3669" 2636716 648
"3670" 2637356 640
"3671" 2638014 658
"3672" 2638715 701
"3673" 2639410 695
"3674" 2640115 705
"3675" 2640839 724
"3676" 2641573 734
"3677" 2642291 718
"3678" 2643005 714
"3679" 2643692 687
"3680" 2644383 691
"3681" 2645052 669
"3682" 2645694 642
"3683" 2646336 642
"3684" 2647007 671
"3685" 2647692 685
"3686" 2648360 668
"3687" 2649051 691
"3688" 2649756 705
"3689" 2650459 703
"3690" 2651158 699
"3691" 2651884 726
"3692" 2652594 710
"3693" 2653308 714
"3694" 2654020 712
"3695" 2654734 714
"3696" 2655431 697
"3697" 2656128 697
"3698" 2656819 691
"3699" 2657500 681
"3700" 2658183 683
"3701" 2658843 660
"3702" 2659520 677
"3703" 2660215 695
"3704" 2660910 695
"3705" 2661615 705
"3706" 2662349 734
"3707" 2663059 710
"3708" 2663779 720
"3709" 2664499 720
"3710" 2665211 712
"3711" 2665916 705
"3712" 2666589 673
"3713" 2667258 669
"3714" 2667941 683
"3715" 2668618 677
"3716" 2669278 660
"3717" 2669949 671
"3718" 2670636 687
"3719" 2671315 679
"3720" 2671975 660
"3721" 2672652 677
"3722" 2673343 691
"3723" 2674024 681
"3724" 2674697 673
"3725" 2675384 687
"3726" 2676069 685
"3727" 2676740 671
"3728" 2677408 668
"3729" 2678083 675
"3730" 2678754 671
"3731" 2679410 656
"3732" 2680081 671
"3733" 2680762 681
"3734" 2681437 675
"3735" 2682105 668
"3736" 2682798 693
"3737" 2683487 689
"3738" 2684160 673
"3739" 2684837 677
"3740" 2685532 695
"3741" 2686227 695
"3742" 2686902 675
"3743" 2687577 675
"3744" 2688270 693
"3745" 2688949 679
"3746" 2689607 658
"3747" 2690271 664
"3748" 2690946 675
"3749" 2691604 658
"3750" 2692248 644
"3751" 2692908 660
"3752" 2693574 666
"3753" 2694236 662
"3754" 2694886 650
"3755" 2695569 683
"3756" 2696250 681
"3757" 2696921 671
"3758" 2697587 666
"3759" 2698282 695
"3760" 2698969 687
"3761" 2699644 675
"3762" 2700325 681
"3763" 2701006 681
"3764" 2701679 673
"3765" 2702329 650
"3766" 2702989 660
"3767" 2703664 675
"3768" 2704322 658
"3769" 2704972 650
"3770" 2705626 654
"3771" 2706305 679
"3772" 2706976 671
"3773" 2707634 658
"3774" 2708307 673
"3775" 2708998 691
"3776" 2709685 687
"3777" 2710347 662
"3778" 2711009 662
"3779" 2711690 681
"3780" 2712358 668
"3781" 2713022 664
"3782" 2713705 683
"3783" 2714417 712
"3784" 2715126 709
"3785" 2715817 691
"3786" 2716500 683
"3787" 2717197 697
"3788" 2717886 689
"3789" 2718555 669
"3790" 2719232 677
"3791" 2719917 685
"3792" 2720602 685
"3793" 2721271 669
"3794" 2721946 675
"3795" 2722653 707
"3796" 2723360 707
"3797" 2724063 703
"3798" 2724787 724
"3799" 2725533 746
"3800" 2726257 724
"3801" 2726962 705
"3802" 2727653 691
"3803" 2728348 695
"3804" 2729027 679
"3805" 2729689 662
"3806" 2730353 664
"3807" 2731042 689
"3808" 2731725 683
"3809" 2732383 658
"3810" 2733041 658
"3811" 2733716 675
"3812" 2734389 673
"3813" 2735043 654
"3814" 2735712 669
"3815" 2736409 697
"3816" 2737112 703
"3817" 2737791 679
"3818" 2738470 679
"3819" 2739167 697
"3820" 2739850 683
"3821" 2740512 662
"3822" 2741181 669
"3823" 2741866 685
"3824" 2742547 681
"3825" 2743220 673
"3826" 2743862 642
"3827" 2744483 621
"3828" 2745094 611
"3829" 2745730 636
"3830" 2746349 619
"3831" 2747001 652
"3832" 2747682 681
"3833" 2748367 685
"3834" 2749036 669
"3835" 2749702 666
"3836" 2750391 689
"3837" 2751088 697
"3838" 2751761 673
"3839" 2752415 654
"3840" 2753083 668
"3841" 2753768 685
"3842" 2754453 685
"3843" 2755132 679
"3844" 2755837 705
"3845" 2756563 726
"3846" 2757281 718
"3847" 2757974 693
"3848" 2758653 679
"3849" 2759344 691
"3850" 2760025 681
"3851" 2760693 668
"3852" 2761351 658
"3853" 2762034 683
"3854" 2762737 703
"3855" 2763428 691
"3856" 2764097 669
"3857" 2764782 685
"3858" 2765469 687
"3859" 2766150 681
"3860" 2766802 652
"3861" 2767454 652
"3862" 2768123 669
"3863" 2768787 664
"3864" 2769429 642
"3865" 2770075 646
"3866" 2770754 679
"3867" 2771443 689
"3868" 2772130 687
"3869" 2772801 671
"3870" 2773488 687
"3871" 2774193 705
"3872" 2774894 701
"3873" 2775575 681
"3874" 2776266 691
"3875" 2776971 705
"3876" 2777664 693
"3877" 2778337 673
"3878" 2779016 679
"3879" 2779717 701
"3880" 2780412 695
"3881" 2781085 673
"3882" 2781756 671
"3883" 2782457 701
"3884" 2783144 687
"3885" 2783815 671
"3886" 2784481 666
"3887" 2785170 689
"3888" 2785855 685
"3889" 2786524 669
"3890" 2787205 681
"3891" 2787912 707
"3892" 2788617 705
"3893" 2789304 687
"3894" 2789983 679
"3895" 2790686 703
"3896" 2791371 685
"3897" 2792035 664
"3898" 2792679 644
"3899" 2793343 664
"3900" 2794007 664
"3901" 2794661 654
"3902" 2795309 648
"3903" 2795980 671
"3904" 2796673 693
"3905" 2797362 689
"3906" 2798041 679
"3907" 2798722 681
"3908" 2799415 693
"3909" 2800104 689
"3910" 2800770 666
"3911" 2801439 669
"3912" 2802124 685
"3913" 2802801 677
"3914" 2803457 656
"3915" 2804107 650
"3916" 2804784 677
"3917" 2805463 679
"3918" 2806131 668
"3919" 2806777 646
"3920" 2807433 656
"3921" 2808091 658
"3922" 2808745 654
"3923" 2809385 640
"3924" 2810023 638
"3925" 2810661 638
"3926" 2811299 638
"3927" 2811935 636
"3928" 2812569 634
"3929" 2813194 625
"3930" 2813822 628
"3931" 2814499 677
"3932" 2815176 677
"3933" 2815845 669
"3934" 2816511 666
"3935" 2817159 648
"3936" 2817791 632
"3937" 2818427 636
"3938" 2819079 652
"3939" 2819745 666
"3940" 2820407 662
"3941" 2821059 652
"3942" 2821711 652
"3943" 2822375 664
"3944" 2823048 673
"3945" 2823710 662
"3946" 2824346 636
"3947" 2824974 628
"3948" 2825604 630
"3949" 2826238 634
"3950" 2826866 628
"3951" 2827481 615
"3952" 2828111 630
"3953" 2828755 644
"3954" 2829417 662
"3955" 2830085 668
"3956" 2830735 650
"3957" 2831363 628
"3958" 2831978 615
"3959" 2832579 601
"3960" 2833172 593
"3961" 2833769 597
"3962" 2834364 595
"3963" 2834951 587
"3964" 2835535 584
"3965" 2836120 585
"3966" 2836698 578
"3967" 2837287 589
"3968" 2837894 607
"3969" 2838509 615
"3970" 2839128 619
"3971" 2839739 611
"3972" 2840348 609
"3973" 2840953 605
"3974" 2841546 593
"3975" 2842135 589
"3976" 2842709 574
"3977" 2843283 574
"3978" 2843857 574
"3979" 2844423 566
"3980" 2844995 572
"3981" 2845565 570
"3982" 2846139 574
"3983" 2846740 601
"3984" 2847372 632
"3985" 2848082 710
"3986" 2848955 873
"3987" 2849908 953
"3988" 2850753 845
"3989" 2851528 775
"3990" 2852276 748
"3991" 2853000 724
"3992" 2853697 697
"3993" 2854368 671
"3994" 2855039 671
"3995" 2855730 691
"3996" 2856437 707
"3997" 2857149 712
"3998" 2857865 716
"3999" 2858560 695
"4000" 2859229 669
"4001" 2859871 642
"4002" 2860531 660
"4003" 2861208 677
"4004" 2861885 677
"4005" 2862554 669
"4006" 2863196 642
"4007" 2863821 625
"4008" 2864446 625
"4009" 2865071 625
"4010" 2865731 660
"4011" 2866428 697
"4012" 2867156 728
"4013" 2867898 742
"4014" 2868620 722
"4015" 2869334 714
"4016" 2870044 710
"4017" 2870756 712
"4018" 2871451 695
"4019" 2872124 673
"4020" 2872799 675
"4021" 2873496 697
"4022" 2874185 689
"4023" 2874853 668
"4024" 2875519 666
"4025" 2876220 701
"4026" 2876921 701
"4027" 2877600 679
"4028" 2878277 677
"4029" 2878984 707
"4030" 2879679 695
"4031" 2880350 671
"4032" 2881019 669
"4033" 2881708 689
"4034" 2882413 705
"4035" 2883104 691
"4036" 2883775 671
"4037" 2884456 681
"4038" 2885161 705
"4039" 2885879 718
"4040" 2886582 703
"4041" 2887263 681
"4042" 2887952 689
"4043" 2888653 701
"4044" 2889350 697
"4045" 2890021 671
"4046" 2890696 675
"4047" 2891391 695
"4048" 2892082 691
"4049" 2892748 666
"4050" 2893429 681
"4051" 2894134 705
"4052" 2894833 699
"4053" 2895514 681
"4054" 2896205 691
"4055" 2896900 695
"4056" 2897587 687
"4057" 2898258 671
"4058" 2898951 693
"4059" 2899648 697
"4060" 2900331 683
"4061" 2901006 675
"4062" 2901707 701
"4063" 2902402 695
"4064" 2903081 679
"4065" 2903758 677
"4066" 2904463 705
"4067" 2905160 697
"4068" 2905839 679
"4069" 2906512 673
"4070" 2907207 695
"4071" 2907898 691
"4072" 2908564 666
"4073" 2909233 669
"4074" 2909932 699
"4075" 2910623 691
"4076" 2911300 677
"4077" 2911968 668
"4078" 2912655 687
"4079" 2913367 712
"4080" 2914066 699
"4081" 2914747 681
"4082" 2915444 697
"4083" 2916147 703
"4084" 2916842 695
"4085" 2917517 675
"4086" 2918175 658
"4087" 2918848 673
"4088" 2919533 685
"4089" 2920204 671
"4090" 2920873 669
"4091" 2921566 693
"4092" 2922267 701
"4093" 2922958 691
"4094" 2923639 681
"4095" 2924342 703
"4096" 2925041 699
"4097" 2925720 679
"4098" 2926399 679
"4099" 2927074 675
"4100" 2927738 664
"4101" 2928382 644
"4102" 2929026 644
"4103" 2929662 636
"4104" 2930287 625
"4105" 2930925 638
"4106" 2931571 646
"4107" 2932203 632
"4108" 2932845 642
"4109" 2933509 664
"4110" 2934180 671
"4111" 2934834 654
"4112" 2935484 650
"4113" 2936159 675
"4114" 2936825 666
"4115" 2937455 630
"4116" 2938099 644
"4117" 2938729 630
"4118" 2939342 613
"4119" 2939947 605
"4120" 2940542 595
"4121" 2941133 591
"4122" 2941720 587
"4123" 2942298 578
"4124" 2942880 582
"4125" 2943467 587
"4126" 2944064 597
"4127" 2944653 589
"4128" 2945240 587
"4129" 2945847 607
"4130" 2946501 654
"4131" 2947169 668
"4132" 2947862 693
"4133" 2948567 705
"4134" 2949285 718
"4135" 2950027 742
"4136" 2950749 722
"4137" 2951454 705
"4138" 2952145 691
"4139" 2952854 709
"4140" 2953572 718
"4141" 2954275 703
"4142" 2954968 693
"4143" 2955665 697
"4144" 2956389 724
"4145" 2957098 709
"4146" 2957805 707
"4147" 2958506 701
"4148" 2959234 728
"4149" 2959956 722
"4150" 2960661 705
"4151" 2961358 697
"4152" 2962078 720
"4153" 2962785 707
"4154" 2963474 689
"4155" 2964157 683
"4156" 2964869 712
"4157" 2965570 701
"4158" 2966259 689
"4159" 2966956 697
"4160" 2967686 730
"4161" 2968393 707
"4162" 2969074 681
"4163" 2969767 693
"4164" 2970476 709
"4165" 2971175 699
"4166" 2971858 683
"4167" 2972545 687
"4168" 2973248 703
"4169" 2973949 701
"4170" 2974624 675
"4171" 2975305 681
"4172" 2976004 699
"4173" 2976703 699
"4174" 2977388 685
"4175" 2978081 693
"4176" 2978784 703
"4177" 2979479 695
"4178" 2980156 677
"4179" 2980855 699
"4180" 2981573 718
"4181" 2982283 710
"4182" 2982980 697
"4183" 2983681 701
"4184" 2984395 714
"4185" 2985100 705
"4186" 2985789 689
"4187" 2986496 707
"4188" 2987201 705
"4189" 2987882 681
"4190" 2988565 683
"4191" 2989260 695
"4192" 2989951 691
"4193" 2990620 669
"4194" 2991309 689
"4195" 2992016 707
"4196" 2992725 709
"4197" 2993424 699
"4198" 2994125 701
"4199" 2994822 697
"4200" 2995501 679
"4201" 2996174 673
"4202" 2996863 689
"4203" 2997556 693
"4204" 2998227 671
"4205" 2998904 677
"4206" 2999599 695
"4207" 3000292 693
"4208" 3000973 681
"4209" 3001678 705
"4210" 3002392 714
"4211" 3003089 697
"4212" 3003778 689
"4213" 3004485 707
"4214" 3005178 693
"4215" 3005846 668
"4216" 3006512 666
"4217" 3007187 675
"4218" 3007855 668
"4219" 3008505 650
"4220" 3009159 654
"4221" 3009836 677
"4222" 3010523 687
"4223" 3011196 673
"4224" 3011860 664
"4225" 3012545 685
"4226" 3013242 697
"4227" 3013935 693
"4228" 3014603 668
"4229" 3015282 679
"4230" 3015967 685
"4231" 3016640 673
"4232" 3017300 660
"4233" 3017979 679
"4234" 3018666 687
"4235" 3019347 681
"4236" 3020009 662
"4237" 3020688 679
"4238" 3021379 691
"4239" 3022072 693
"4240" 3022753 681
"4241" 3023432 679
"4242" 3024127 695
"4243" 3024816 689
"4244" 3025487 671
"4245" 3026153 666
"4246" 3026826 673
"4247" 3027497 671
"4248" 3028161 664
"4249" 3028817 656
"4250" 3029494 677
"4251" 3030179 685
"4252" 3030850 671
"4253" 3031502 652
"4254" 3032170 668
"4255" 3032853 683
"4256" 3033534 681
"4257" 3034198 664
"4258" 3034867 669
"4259" 3035562 695
"4260" 3036255 693
"4261" 3036928 673
"4262" 3037615 687
"4263" 3038333 718
"4264" 3039057 724
"4265" 3039754 697
"4266" 3040449 695
"4267" 3041167 718
"4268" 3041881 714
"4269" 3042572 691
"4270" 3043251 679
"4271" 3043954 703
"4272" 3044653 699
"4273" 3045328 675
"4274" 3046003 675
"4275" 3046702 699
"4276" 3047399 697
"4277" 3048076 677
"4278" 3048759 683
"4279" 3049456 697
"4280" 3050143 687
"4281" 3050812 669
"4282" 3051503 691
"4283" 3052206 703
"4284" 3052899 693
"4285" 3053582 683
"4286" 3054283 701
"4287" 3054980 697
"4288" 3055665 685
"4289" 3056350 685
"4290" 3057053 703
"4291" 3057752 699
"4292" 3058435 683
"4293" 3059122 687
"4294" 3059823 701
"4295" 3060522 699
"4296" 3061199 677
"4297" 3061874 675
"4298" 3062571 697
"4299" 3063260 689
"4300" 3063931 671
"4301" 3064604 673
"4302" 3065297 693
"4303" 3065990 693
"4304" 3066671 681
"4305" 3067335 664
"4306" 3068016 681
"4307" 3068717 701
"4308" 3069420 703
"4309" 3070101 681
"4310" 3070778 677
"4311" 3071467 689
"4312" 3072156 689
"4313" 3072847 691
"4314" 3073520 673
"4315" 3074199 679
"4316" 3074894 695
"4317" 3075604 710
"4318" 3076307 703
"4319" 3076994 687
"4320" 3077685 691
"4321" 3078390 705
"4322" 3079100 710
"4323" 3079791 691
"4324" 3080472 681
"4325" 3081171 699
"4326" 3081866 695
"4327" 3082547 681
"4328" 3083224 677
"4329" 3083927 703
"4330" 3084645 718
"4331" 3085363 718
"4332" 3086068 705
"4333" 3086784 716
"4334" 3087514 730
"4335" 3088219 705
"4336" 3088900 681
"4337" 3089585 685
"4338" 3090272 687
"4339" 3090945 673
"4340" 3091622 677
"4341" 3092309 687
"4342" 3092994 685
"4343" 3093667 673
"4344" 3094333 666
"4345" 3095020 687
"4346" 3095705 685
"4347" 3096371 666
"4348" 3097044 673
"4349" 3097737 693
"4350" 3098430 693
"4351" 3099101 671
"4352" 3099767 666
"4353" 3100440 673
"4354" 3101109 669
"4355" 3101761 652
"4356" 3102425 664
"4357" 3103096 671
"4358" 3103762 666
"4359" 3104410 648
"4360" 3105062 652
"4361" 3105743 681
"4362" 3106414 671
"4363" 3107076 662
"4364" 3107749 673
"4365" 3108438 689
"4366" 3109129 691
"4367" 3109804 675
"4368" 3110481 677
"4369" 3111174 693
"4370" 3111865 691
"4371" 3112536 671
"4372" 3113215 679
"4373" 3113912 697
"4374" 3114605 693
"4375" 3115274 669
"4376" 3115951 677
"4377" 3116642 691
"4378" 3117325 683
"4379" 3117989 664
"4380" 3118672 683
"4381" 3119369 697
"4382" 3120064 695
"4383" 3120739 675
"4384" 3121434 695
"4385" 3122148 714
"4386" 3122847 699
"4387" 3123520 673
"4388" 3124197 677
"4389" 3124888 691
"4390" 3125569 681
"4391" 3126225 656
"4392" 3126887 662
"4393" 3127558 671
"4394" 3128231 673
"4395" 3128881 650
"4396" 3129547 666
"4397" 3130224 677
"4398" 3130897 673
"4399" 3131553 656
"4400" 3132226 673
"4401" 3132903 677
"4402" 3133574 671
"4403" 3134222 648
"4404" 3134891 669
"4405" 3135560 669
"4406" 3136216 656
"4407" 3136854 638
"4408" 3137508 654
"4409" 3138177 669
"4410" 3138862 685
"4411" 3139543 681
"4412" 3140214 671
"4413" 3140895 681
"4414" 3141607 712
"4415" 3142308 701
"4416" 3142989 681
"4417" 3143657 668
"4418" 3144340 683
"4419" 3145019 679
"4420" 3145683 664
"4421" 3146341 658
"4422" 3147020 679
"4423" 3147695 675
"4424" 3148351 656
"4425" 3149017 666
"4426" 3149690 673
"4427" 3150361 671
"4428" 3151013 652
"4429" 3151671 658
"4430" 3152348 677
"4431" 3153023 675
"4432" 3153681 658
"4433" 3154347 666
"4434" 3155034 687
"4435" 3155719 685
"4436" 3156385 666
"4437" 3157049 664
"4438" 3157738 689
"4439" 3158425 687
"4440" 3159089 664
"4441" 3159745 656
"4442" 3160416 671
"4443" 3161078 662
"4444" 3161720 642
"4445" 3162350 630
"4446" 3162982 632
"4447" 3163620 638
"4448" 3164254 634
"4449" 3164884 630
"4450" 3165511 627
"4451" 3166130 619
"4452" 3166729 599
"4453" 3167324 595
"4454" 3167909 585
"4455" 3168487 578
"4456" 3169074 587
"4457" 3169667 593
"4458" 3170258 591
"4459" 3170853 595
"4460" 3171442 589
"4461" 3172033 591
"4462" 3172638 605
"4463" 3173259 621
"4464" 3173887 628
"4465" 3174523 636
"4466" 3175165 642
"4467" 3175823 658
"4468" 3176504 681
"4469" 3177195 691
"4470" 3177872 677
"4471" 3178526 654
"4472" 3179162 636
"4473" 3179789 627
"4474" 3180419 630
"4475" 3181067 648
"4476" 3181725 658
"4477" 3182373 648
"4478" 3183033 660
"4479" 3183708 675
"4480" 3184403 695
"4481" 3185096 693
"4482" 3185783 687
"4483" 3186451 668
"4484" 3187134 683
"4485" 3187839 705
"4486" 3188534 695
"4487" 3189211 677
"4488" 3189890 679
"4489" 3190587 697
"4490" 3191309 722
"4491" 3192021 712
"4492" 3192722 701
"4493" 3193419 697
"4494" 3194129 710
"4495" 3194859 730
"4496" 3195575 716
"4497" 3196276 701
"4498" 3196953 677
"4499" 3197650 697
"4500" 3198353 703
"4501" 3199056 703
"4502" 3199737 681
"4503" 3200440 703
"4504" 3201164 724
"4505" 3201869 705
"4506" 3202556 687
"4507" 3203243 687
"4508" 3203950 707
"4509" 3204660 710
"4510" 3205359 699
"4511" 3206040 681
"4512" 3206747 707
"4513" 3207450 703
"4514" 3208135 685
"4515" 3208816 681
"4516" 3209521 705
"4517" 3210222 701
"4518" 3210905 683
"4519" 3211600 695
"4520" 3212322 722
"4521" 3213042 720
"4522" 3213751 709
"4523" 3214460 709
"4524" 3215182 722
"4525" 3215889 707
"4526" 3216570 681
"4527" 3217251 681
"4528" 3217952 701
"4529" 3218643 691
"4530" 3219314 671
"4531" 3219991 677
"4532" 3220690 699
"4533" 3221393 703
"4534" 3222074 681
"4535" 3222767 693
"4536" 3223460 693
"4537" 3224143 683
"4538" 3224801 658
"4539" 3225482 681
"4540" 3226167 685
"4541" 3226852 685
"4542" 3227535 683
"4543" 3228234 699
"4544" 3228923 689
"4545" 3229602 679
"4546" 3230301 699
"4547" 3231004 703
"4548" 3231701 697
"4549" 3232382 681
"4550" 3233081 699
"4551" 3233786 705
"4552" 3234481 695
"4553" 3235168 687
"4554" 3235863 695
"4555" 3236552 689
"4556" 3237223 671
"4557" 3237916 693
"4558" 3238623 707
"4559" 3239322 699
"4560" 3240023 701
"4561" 3240735 712
"4562" 3241442 707
"4563" 3242127 685
"4564" 3242834 707
"4565" 3243541 707
"4566" 3244226 685
"4567" 3244911 685
"4568" 3245606 695
"4569" 3246295 689
"4570" 3246959 664
"4571" 3247638 679
"4572" 3248331 693
"4573" 3249020 689
"4574" 3249701 681
"4575" 3250404 703
"4576" 3251113 709
"4577" 3251810 697
"4578" 3252519 709
"4579" 3253237 718
"4580" 3253947 710
"4581" 3254648 701
"4582" 3255372 724
"4583" 3256096 724
"4584" 3256801 705
"4585" 3257496 695
"4586" 3258197 701
"4587" 3258886 689
"4588" 3259559 673
"4589" 3260240 681
"4590" 3260911 671
"4591" 3261569 658
"4592" 3262229 660
"4593" 3262908 679
"4594" 3263593 685
"4595" 3264264 671
"4596" 3264959 695
"4597" 3265660 701
"4598" 3266355 695
"4599" 3267042 687
"4600" 3267751 709
"4601" 3268454 703
"4602" 3269133 679
"4603" 3269816 683
"4604" 3270493 677
"4605" 3271157 664
"4606" 3271825 668
"4607" 3272510 685
"4608" 3273203 693
"4609" 3273878 675
"4610" 3274573 695
"4611" 3275272 699
"4612" 3275965 693
"4613" 3276654 689
"4614" 3277355 701
"4615" 3278052 697
"4616" 3278727 675
"4617" 3279404 677
"4618" 3280087 683
"4619" 3280762 675
"4620" 3281418 656
"4621" 3282084 666
"4622" 3282755 671
"4623" 3283421 666
"4624" 3284087 666
"4625" 3284770 683
"4626" 3285453 683
"4627" 3286117 664
"4628" 3286800 683
"4629" 3287491 691
"4630" 3288174 683
"4631" 3288851 677
"4632" 3289550 699
"4633" 3290245 695
"4634" 3290916 671
"4635" 3291603 687
"4636" 3292298 695
"4637" 3292985 687
"4638" 3293672 687
"4639" 3294386 714
"4640" 3295093 707
"4641" 3295784 691
"4642" 3296471 687
"4643" 3297180 709
"4644" 3297894 714
"4645" 3298585 691
"4646" 3299280 695
"4647" 3299985 705
"4648" 3300678 693
"4649" 3301349 671
"4650" 3302034 685
"4651" 3302709 675
"4652" 3303369 660
"4653" 3304033 664
"4654" 3304720 687
"4655" 3305399 679
"4656" 3306063 664
"4657" 3306736 673
"4658" 3307427 691
"4659" 3308118 691
"4660" 3308795 677
"4661" 3309505 710
"4662" 3310217 712
"4663" 3310916 699
"4664" 3311613 697
"4665" 3312314 701
"4666" 3313003 689
"4667" 3313671 668
"4668" 3314364 693
"4669" 3315049 685
"4670" 3315715 666
"4671" 3316394 679
"4672" 3317085 691
"4673" 3317778 693
"4674" 3318463 685
"4675" 3319162 699
"4676" 3319857 695
"4677" 3320536 679
"4678" 3321213 677
"4679" 3321904 691
"4680" 3322595 691
"4681" 3323274 679
"4682" 3323973 699
"4683" 3324685 712
"4684" 3325388 703
"4685" 3326077 689
"4686" 3326780 703
"4687" 3327485 705
"4688" 3328168 683
"4689" 3328853 685
"4690" 3329538 685
"4691" 3330221 683
"4692" 3330881 660
"4693" 3331562 681
"4694" 3332249 687
"4695" 3332926 677
"4696" 3333599 673
"4697" 3334298 699
"4698" 3334999 701
"4699" 3335686 687
"4700" 3336381 695
"4701" 3337099 718
"4702" 3337817 718
"4703" 3338520 703
"4704" 3339252 732
"4705" 3339964 712
"4706" 3340651 687
"4707" 3341328 677
"4708" 3342007 679
"4709" 3342676 669
"4710" 3343334 658
"4711" 3344003 669
"4712" 3344678 675
"4713" 3345334 656
"4714" 3346009 675
"4715" 3346704 695
"4716" 3347409 705
"4717" 3348108 699
"4718" 3348836 728
"4719" 3349556 720
"4720" 3350249 693
"4721" 3350946 697
"4722" 3351647 701
"4723" 3352330 683
"4724" 3352992 662
"4725" 3353671 679
"4726" 3354352 681
"4727" 3355023 671
"4728" 3355687 664
"4729" 3356370 683
"4730" 3357067 697
"4731" 3357756 689
"4732" 3358427 671
"4733" 3359122 695
"4734" 3359823 701
"4735" 3360518 695
"4736" 3361184 666
"4737" 3361861 677
"4738" 3362542 681
"4739" 3363219 677
"4740" 3363869 650
"4741" 3364540 671
"4742" 3365221 681
"4743" 3365902 681
"4744" 3366575 673
"4745" 3367262 687
"4746" 3367971 709
"4747" 3368678 707
"4748" 3369365 687
"4749" 3370083 718
"4750" 3370786 703
"4751" 3371463 677
"4752" 3372129 666
"4753" 3372830 701
"4754" 3373529 699
"4755" 3374212 683
"4756" 3374907 695
"4757" 3375619 712
"4758" 3376328 709
"4759" 3377015 687
"4760" 3377710 695
"4761" 3378415 705
"4762" 3379110 695
"4763" 3379774 664
"4764" 3380451 677
"4765" 3381111 660
"4766" 3381739 628
"4767" 3382375 636
"4768" 3382998 623
"4769" 3383621 623
"4770" 3384246 625
"4771" 3384861 615
"4772" 3385478 617
"4773" 3386099 621
"4774" 3386729 630
"4775" 3387377 648
"4776" 3388025 648
"4777" 3388698 673
"4778" 3389395 697
"4779" 3390088 693
"4780" 3390765 677
"4781" 3391438 673
"4782" 3392129 691
"4783" 3392806 677
"4784" 3393460 654
"4785" 3394122 662
"4786" 3394809 687
"4787" 3395502 693
"4788" 3396189 687
"4789" 3396880 691
"4790" 3397598 718
"4791" 3398322 724
"4792" 3399027 705
"4793" 3399741 714
"4794" 3400481 740
"4795" 3401213 732
"4796" 3401914 701
"4797" 3402607 693
"4798" 3403308 701
"4799" 3403999 691
"4800" 3404665 666
"4801" 3405348 683
"4802" 3406039 691
"4803" 3406714 675
"4804" 3407395 681
"4805" 3408100 705
"4806" 3408801 701
"4807" 3409498 697
"4808" 3410214 716
"4809" 3410921 707
"4810" 3411606 685
"4811" 3412281 675
"4812" 3412978 697
"4813" 3413665 687
"4814" 3414334 669
"4815" 3414992 658
"4816" 3415675 683
"4817" 3416360 685
"4818" 3417028 668
"4819" 3417701 673
"4820" 3418402 701
"4821" 3419105 703
"4822" 3419784 679
"4823" 3420485 701
"4824" 3421186 701
"4825" 3421873 687
"4826" 3422542 669
"4827" 3423237 695
"4828" 3423947 710
"4829" 3424640 693
"4830" 3425315 675
"4831" 3426012 697
"4832" 3426709 697
"4833" 3427384 675
"4834" 3428053 669
"4835" 3428750 697
"4836" 3429445 695
"4837" 3430122 677
"4838" 3430807 685
"4839" 3431514 707
"4840" 3432215 701
"4841" 3432888 673
"4842" 3433565 677
"4843" 3434246 681
"4844" 3434915 669
"4845" 3435573 658
"4846" 3436258 685
"4847" 3436957 699
"4848" 3437658 701
"4849" 3438345 687
"4850" 3439055 710
"4851" 3439762 707
"4852" 3440443 681
"4853" 3441114 671
"4854" 3441801 687
"4855" 3442492 691
"4856" 3443165 673
"4857" 3443862 697
"4858" 3444567 705
"4859" 3445260 693
"4860" 3445939 679
"4861" 3446642 703
"4862" 3447339 697
"4863" 3448014 675
"4864" 3448695 681
"4865" 3449386 691
"4866" 3450071 685
"4867" 3450742 671
"4868" 3451431 689
"4869" 3452130 699
"4870" 3452809 679
"4871" 3453478 669
"4872" 3454173 695
"4873" 3454862 689
"4874" 3455535 673
"4875" 3456216 681
"4876" 3456917 701
"4877" 3457612 695
"4878" 3458280 668
"4879" 3458965 685
"4880" 3459658 693
"4881" 3460337 679
"4882" 3461006 669
"4883" 3461705 699
"4884" 3462406 701
"4885" 3463091 685
"4886" 3463782 691
"4887" 3464489 707
"4888" 3465192 703
"4889" 3465879 687
"4890" 3466582 703
"4891" 3467292 710
"4892" 3467989 697
"4893" 3468668 679
"4894" 3469367 699
"4895" 3470074 707
"4896" 3470753 679
"4897" 3471415 662
"4898" 3472094 679
"4899" 3472787 693
"4900" 3473478 691
"4901" 3474153 675
"4902" 3474848 695
"4903" 3475566 718
"4904" 3476273 707
"4905" 3476958 685
"4906" 3477670 712
"4907" 3478375 705
"4908" 3479052 677
"4909" 3479725 673
"4910" 3480408 683
"4911" 3481083 675
"4912" 3481721 638
"4913" 3482367 646
"4914" 3482986 619
"4915" 3483603 617
"4916" 3484237 634
"4917" 3484875 638
"4918" 3485541 666
"4919" 3486257 716
"4920" 3487003 746
"4921" 3487731 728
"4922" 3488443 712
"4923" 3489163 720
"4924" 3489868 705
"4925" 3490541 673
"4926" 3491189 648
"4927" 3491845 656
"4928" 3492501 656
"4929" 3493147 646
"4930" 3493774 627
"4931" 3494420 646
"4932" 3495089 669
"4933" 3495766 677
"4934" 3496426 660
"4935" 3497094 668
"4936" 3497816 722
"4937" 3498532 716
"4938" 3499217 685
"4939" 3499906 689
"4940" 3500605 699
"4941" 3501286 681
"4942" 3501940 654
"4943" 3502596 656
"4944" 3503275 679
"4945" 3503948 673
"4946" 3504596 648
"4947" 3505250 654
"4948" 3505927 677
"4949" 3506606 679
"4950" 3507268 662
"4951" 3507936 668
"4952" 3508627 691
"4953" 3509332 705
"4954" 3510017 685
"4955" 3510702 685
"4956" 3511414 712
"4957" 3512107 693
"4958" 3512761 654
"4959" 3513395 634
"4960" 3514031 636
"4961" 3514658 627
"4962" 3515267 609
"4963" 3515860 593
"4964" 3516457 597
"4965" 3517046 589
"4966" 3517659 613
"4967" 3518280 621
"4968" 3518907 627
"4969" 3519569 662
"4970" 3520278 709
"4971" 3521022 744
"4972" 3521742 720
"4973" 3522460 718
"4974" 3523186 726
"4975" 3523920 734
"4976" 3524630 710
"4977" 3525307 677
"4978" 3525971 664
"4979" 3526658 687
"4980" 3527361 703
"4981" 3528048 687
"4982" 3528729 681
"4983" 3529463 734
"4984" 3530234 771
"4985" 3530989 755
"4986" 3531735 746
"4987" 3532487 752
"4988" 3533225 738
"4989" 3533937 712
"4990" 3534620 683
"4991" 3535313 693
"4992" 3536018 705
"4993" 3536713 695
"4994" 3537388 675
"4995" 3538083 695
"4996" 3538809 726
"4997" 3539541 732
"4998" 3540246 705
"4999" 3540976 730
"5000" 3541698 722
"5001" 3542395 697
"5002" 3543057 662
"5003" 3543738 681
"5004" 3544419 681
"5005" 3545087 668
"5006" 3545723 636
"5007" 3546351 628
"5008" 3547022 671
"5009" 3547666 644
"5010" 3548287 621
"5011" 3548896 609
"5012" 3549489 593
"5013" 3550102 613
"5014" 3550752 650
"5015" 3551427 675
"5016" 3552104 677
"5017" 3552760 656
"5018" 3553441 681
"5019" 3554157 716
"5020" 3554881 724
"5021" 3555578 697
"5022" 3556271 693
"5023" 3556981 710
"5024" 3557707 726
"5025" 3558425 718
"5026" 3559112 687
"5027" 3559807 695
"5028" 3560525 718
"5029" 3561251 726
"5030" 3561946 695
"5031" 3562639 693
"5032" 3563349 710
"5033" 3564063 714
"5034" 3564770 707
"5035" 3565445 675
"5036" 3566107 662
"5037" 3566788 681
"5038" 3567487 699
"5039" 3568178 691
"5040" 3568842 664
"5041" 3569480 638
"5042" 3570122 642
"5043" 3570778 656
"5044" 3571422 644
"5045" 3572080 658
"5046" 3572785 705
"5047" 3573497 712
"5048" 3574192 695
"5049" 3574869 677
"5050" 3575566 697
"5051" 3576273 707
"5052" 3576962 689
"5053" 3577618 656
"5054" 3578295 677
"5055" 3578990 695
"5056" 3579697 707
"5057" 3580400 703
"5058" 3581101 701
"5059" 3581833 732
"5060" 3582575 742
"5061" 3583303 728
"5062" 3583992 689
"5063" 3584710 718
"5064" 3585430 720
"5065" 3586127 697
"5066" 3586806 679
"5067" 3587520 714
"5068" 3588236 716
"5069" 3588937 701
"5070" 3589647 710
"5071" 3590381 734
"5072" 3591105 724
"5073" 3591798 693
"5074" 3592499 701
"5075" 3593215 716
"5076" 3593920 705
"5077" 3594603 683
"5078" 3595300 697
"5079" 3596009 709
"5080" 3596706 697
"5081" 3597385 679
"5082" 3598092 707
"5083" 3598806 714
"5084" 3599511 705
"5085" 3600196 685
"5086" 3600903 707
"5087" 3601612 709
"5088" 3602301 689
"5089" 3602990 689
"5090" 3603704 714
"5091" 3604436 732
"5092" 3605145 709
"5093" 3605844 699
"5094" 3606576 732
"5095" 3607310 734
"5096" 3608007 697
"5097" 3608702 695
"5098" 3609412 710
"5099" 3610124 712
"5100" 3610809 685
"5101" 3611496 687
"5102" 3612206 710
"5103" 3612911 705
"5104" 3613592 681
"5105" 3614275 683
"5106" 3614976 701
"5107" 3615665 689
"5108" 3616334 669
"5109" 3617017 683
"5110" 3617731 714
"5111" 3618440 709
"5112" 3619123 683
"5113" 3619826 703
"5114" 3620538 712
"5115" 3621231 693
"5116" 3621897 666
"5117" 3622576 679
"5118" 3623269 693
"5119" 3623962 693
"5120" 3624635 673
"5121" 3625318 683
"5122" 3626021 703
"5123" 3626712 691
"5124" 3627383 671
"5125" 3628068 685
"5126" 3628769 701
"5127" 3629460 691
"5128" 3630137 677
"5129" 3630830 693
"5130" 3631517 687
"5131" 3632185 668
"5132" 3632856 671
"5133" 3633541 685
"5134" 3634212 671
"5135" 3634866 654
"5136" 3635539 673
"5137" 3636226 687
"5138" 3636901 675
"5139" 3637563 662
"5140" 3638244 681
"5141" 3638935 691
"5142" 3639601 666
"5143" 3640259 658
"5144" 3640936 677
"5145" 3641609 673
"5146" 3642269 660
"5147" 3642911 642
"5148" 3643569 658
"5149" 3644231 662
"5150" 3644877 646
"5151" 3645515 638
"5152" 3646179 664
"5153" 3646847 668
"5154" 3647505 658
"5155" 3648151 646
"5156" 3648822 671
"5157" 3649501 679
"5158" 3650167 666
"5159" 3650821 654
"5160" 3651498 677
"5161" 3652169 671
"5162" 3652825 656
"5163" 3653475 650
"5164" 3654146 671
"5165" 3654810 664
"5166" 3655458 648
"5167" 3656102 644
"5168" 3656775 673
"5169" 3657450 675
"5170" 3658114 664
"5171" 3658782 668
"5172" 3659477 695
"5173" 3660164 687
"5174" 3660820 656
"5175" 3661486 666
"5176" 3662163 677
"5177" 3662831 668
"5178" 3663477 646
"5179" 3664143 666
"5180" 3664822 679
"5181" 3665497 675
"5182" 3666151 654
"5183" 3666805 654
"5184" 3667474 669
"5185" 3668149 675
"5186" 3668807 658
"5187" 3669455 648
"5188" 3670121 666
"5189" 3670792 671
"5190" 3671446 654
"5191" 3672090 644
"5192" 3672746 656
"5193" 3673414 668
"5194" 3674078 664
"5195" 3674728 650
"5196" 3675384 656
"5197" 3676053 669
"5198" 3676726 673
"5199" 3677384 658
"5200" 3678026 642
"5201" 3678684 658
"5202" 3679352 668
"5203" 3680016 664
"5204" 3680658 642
"5205" 3681310 652
"5206" 3681979 669
"5207" 3682643 664
"5208" 3683285 642
"5209" 3683927 642
"5210" 3684596 669
"5211" 3685269 673
"5212" 3685921 652
"5213" 3686579 658
"5214" 3687256 677
"5215" 3687927 671
"5216" 3688577 650
"5217" 3689235 658
"5218" 3689914 679
"5219" 3690589 675
"5220" 3691253 664
"5221" 3691909 656
"5222" 3692590 681
"5223" 3693269 679
"5224" 3693927 658
"5225" 3694581 654
"5226" 3695252 671
"5227" 3695923 671
"5228" 3696583 660
"5229" 3697229 646
"5230" 3697881 652
"5231" 3698552 671
"5232" 3699216 664
"5233" 3699850 634
"5234" 3700467 617
"5235" 3701082 615
"5236" 3701701 619
"5237" 3702333 632
"5238" 3702954 621
"5239" 3703565 611
"5240" 3704192 627
"5241" 3704832 640
"5242" 3705462 630
"5243" 3706094 632
"5244" 3706744 650
"5245" 3707410 666
"5246" 3708074 664
"5247" 3708726 652
"5248" 3709382 656
"5249" 3710055 673
"5250" 3710738 683
"5251" 3711406 668
"5252" 3712058 652
"5253" 3712724 666
"5254" 3713390 666
"5255" 3714040 650
"5256" 3714696 656
"5257" 3715369 673
"5258" 3716042 673
"5259" 3716702 660
"5260" 3717364 662
"5261" 3718047 683
"5262" 3718730 683
"5263" 3719407 677
"5264" 3720065 658
"5265" 3720734 669
"5266" 3721425 691
"5267" 3722110 685
"5268" 3722778 668
"5269" 3723436 658
"5270" 3724115 679
"5271" 3724816 701
"5272" 3725513 697
"5273" 3726188 675
"5274" 3726863 675
"5275" 3727560 697
"5276" 3728259 699
"5277" 3728948 689
"5278" 3729623 675
"5279" 3730314 691
"5280" 3731005 691
"5281" 3731673 668
"5282" 3732325 652
"5283" 3732993 668
"5284" 3733672 679
"5285" 3734345 673
"5286" 3735009 664
"5287" 3735712 703
"5288" 3736419 707
"5289" 3737110 691
"5290" 3737795 685
"5291" 3738504 709
"5292" 3739209 705
"5293" 3739892 683
"5294" 3740571 679
"5295" 3741278 707
"5296" 3741981 703
"5297" 3742654 673
"5298" 3743323 669
"5299" 3744024 701
"5300" 3744729 705
"5301" 3745414 685
"5302" 3746105 691
"5303" 3746815 710
"5304" 3747510 695
"5305" 3748185 675
"5306" 3748849 664
"5307" 3749538 689
"5308" 3750219 681
"5309" 3750892 673
"5310" 3751561 669
"5311" 3752256 695
"5312" 3752965 709
"5313" 3753652 687
"5314" 3754339 687
"5315" 3755044 705
"5316" 3755760 716
"5317" 3756459 699
"5318" 3757134 675
"5319" 3757811 677
"5320" 3758510 699
"5321" 3759201 691
"5322" 3759872 671
"5323" 3760553 681
"5324" 3761269 716
"5325" 3761974 705
"5326" 3762655 681
"5327" 3763340 685
"5328" 3764060 720
"5329" 3764770 710
"5330" 3765457 687
"5331" 3766144 687
"5332" 3766858 714
"5333" 3767563 705
"5334" 3768252 689
"5335" 3768945 693
"5336" 3769654 709
"5337" 3770359 705
"5338" 3771032 673
"5339" 3771715 683
"5340" 3772422 707
"5341" 3773123 701
"5342" 3773804 681
"5343" 3774493 689
"5344" 3775217 724
"5345" 3775933 716
"5346" 3776620 687
"5347" 3777309 689
"5348" 3778018 709
"5349" 3778715 697
"5350" 3779390 675
"5351" 3780069 679
"5352" 3780768 699
"5353" 3781457 689
"5354" 3782121 664
"5355" 3782798 677
"5356" 3783495 697
"5357" 3784186 691
"5358" 3784857 671
"5359" 3785534 677
"5360" 3786229 695
"5361" 3786920 691
"5362" 3787591 671
"5363" 3788274 683
"5364" 3788977 703
"5365" 3789676 699
"5366" 3790351 675
"5367" 3791038 687
"5368" 3791737 699
"5369" 3792428 691
"5370" 3793097 669
"5371" 3793772 675
"5372" 3794461 689
"5373" 3795144 683
"5374" 3795810 666
"5375" 3796483 673
"5376" 3797180 697
"5377" 3797871 691
"5378" 3798542 671
"5379" 3799215 673
"5380" 3799916 701
"5381" 3800611 695
"5382" 3801286 675
"5383" 3801963 677
"5384" 3802658 695
"5385" 3803347 689
"5386" 3804016 669
"5387" 3804693 677
"5388" 3805390 697
"5389" 3806077 687
"5390" 3806741 664
"5391" 3807412 671
"5392" 3808103 691
"5393" 3808784 681
"5394" 3809438 654
"5395" 3810102 664
"5396" 3810775 673
"5397" 3811441 666
"5398" 3812079 638
"5399" 3812696 617
"5400" 3813313 617
"5401" 3813938 625
"5402" 3814570 632
"5403" 3815187 617
"5404" 3815802 615
"5405" 3816429 627
"5406" 3817081 652
"5407" 3817762 681
"5408" 3818459 697
"5409" 3819148 689
"5410" 3819858 710
"5411" 3820590 732
"5412" 3821324 734
"5413" 3822042 718
"5414" 3822727 685
"5415" 3823420 693
"5416" 3824136 716
"5417" 3824843 707
"5418" 3825520 677
"5419" 3826207 687
"5420" 3826925 718
"5421" 3827659 734
"5422" 3828383 724
"5423" 3829115 732
"5424" 3829874 759
"5425" 3830622 748
"5426" 3831340 718
"5427" 3832074 734
"5428" 3832826 752
"5429" 3833558 732
"5430" 3834261 703
"5431" 3834981 720
"5432" 3835703 722
"5433" 3836402 699
"5434" 3837097 695
"5435" 3837804 707
"5436" 3838503 699
"5437" 3839178 675
"5438" 3839877 699
"5439" 3840578 701
"5440" 3841267 689
"5441" 3841962 695
"5442" 3842676 714
"5443" 3843383 707
"5444" 3844070 687
"5445" 3844765 695
"5446" 3845475 710
"5447" 3846178 703
"5448" 3846855 677
"5449" 3847546 691
"5450" 3848247 701
"5451" 3848942 695
"5452" 3849623 681
"5453" 3850316 693
"5454" 3851011 695
"5455" 3851684 673
"5456" 3852367 683
"5457" 3853054 687
"5458" 3853741 687
"5459" 3854407 666
"5460" 3855098 691
"5461" 3855789 691
"5462" 3856474 685
"5463" 3857155 681
"5464" 3857860 705
"5465" 3858553 693
"5466" 3859228 675
"5467" 3859909 681
"5468" 3860610 701
"5469" 3861297 687
"5470" 3861957 660
"5471" 3862626 669
"5472" 3863313 687
"5473" 3863994 681
"5474" 3864656 662
"5475" 3865329 673
"5476" 3866020 691
"5477" 3866713 693
"5478" 3867388 675
"5479" 3868077 689
"5480" 3868780 703
"5481" 3869473 693
"5482" 3870152 679
"5483" 3870849 697
"5484" 3871550 701
"5485" 3872233 683
"5486" 3872910 677
"5487" 3873611 701
"5488" 3874312 701
"5489" 3874991 679
"5490" 3875672 681
"5491" 3876369 697
"5492" 3877064 695
"5493" 3877737 673
"5494" 3878426 689
"5495" 3879121 695
"5496" 3879796 675
"5497" 3880467 671
"5498" 3881162 695
"5499" 3881847 685
"5500" 3882509 662
"5501" 3883182 673
"5502" 3883867 685
"5503" 3884546 679
"5504" 3885206 660
"5505" 3885868 662
"5506" 3886549 681
"5507" 3887226 677
"5508" 3887886 660
"5509" 3888555 669
"5510" 3889256 701
"5511" 3889957 701
"5512" 3890640 683
"5513" 3891329 689
"5514" 3892038 709
"5515" 3892733 695
"5516" 3893408 675
"5517" 3894099 691
"5518" 3894794 695
"5519" 3895479 685
"5520" 3896150 671
"5521" 3896833 683
"5522" 3897524 691
"5523" 3898197 673
"5524" 3898868 671
"5525" 3899563 695
"5526" 3900256 693
"5527" 3900929 673
"5528" 3901608 679
"5529" 3902311 703
"5530" 3903006 695
"5531" 3903679 673
"5532" 3904362 683
"5533" 3905053 691
"5534" 3905734 681
"5535" 3906394 660
"5536" 3907073 679
"5537" 3907766 693
"5538" 3908449 683
"5539" 3909124 675
"5540" 3909813 689
"5541" 3910518 705
"5542" 3911205 687
"5543" 3911874 669
"5544" 3912559 685
"5545" 3913252 693
"5546" 3913937 685
"5547" 3914618 681
"5548" 3915323 705
"5549" 3916035 712
"5550" 3916722 687
"5551" 3917401 679
"5552" 3918100 699
"5553" 3918793 693
"5554" 3919462 669
"5555" 3920133 671
"5556" 3920822 689
"5557" 3921505 683
"5558" 3922171 666
"5559" 3922856 685
"5560" 3923551 695
"5561" 3924230 679
"5562" 3924909 679
"5563" 3925618 709
"5564" 3926321 703
"5565" 3927002 681
"5566" 3927685 683
"5567" 3928384 699
"5568" 3929073 689
"5569" 3929742 669
"5570" 3930421 679
"5571" 3931100 679
"5572" 3931758 658
"5573" 3932406 648
"5574" 3933068 662
"5575" 3933739 671
"5576" 3934403 664
"5577" 3935045 642
"5578" 3935714 669
"5579" 3936397 683
"5580" 3937078 681
"5581" 3937746 668
"5582" 3938435 689
"5583" 3939149 714
"5584" 3939852 703
"5585" 3940537 685
"5586" 3941232 695
"5587" 3941942 710
"5588" 3942635 693
"5589" 3943304 669
"5590" 3943983 679
"5591" 3944674 691
"5592" 3945349 675
"5593" 3946013 664
"5594" 3946698 685
"5595" 3947377 679
"5596" 3948037 660
"5597" 3948689 652
"5598" 3949349 660
"5599" 3950007 658
"5600" 3950649 642
"5601" 3951260 611
"5602" 3951892 632
"5603" 3952517 625
"5604" 3953132 615
"5605" 3953733 601
"5606" 3954328 595
"5607" 3954912 584
"5608" 3955496 584
"5609" 3956089 593
"5610" 3956708 619
"5611" 3957338 630
"5612" 3957955 617
"5613" 3958583 628
"5614" 3959235 652
"5615" 3959908 673
"5616" 3960595 687
"5617" 3961266 671
"5618" 3961935 669
"5619" 3962626 691
"5620" 3963342 716
"5621" 3964052 710
"5622" 3964733 681
"5623" 3965422 689
"5624" 3966142 720
"5625" 3966864 722
"5626" 3967565 701
"5627" 3968254 689
"5628" 3968980 726
"5629" 3969710 730
"5630" 3970409 699
"5631" 3971114 705
"5632" 3971860 746
"5633" 3972596 736
"5634" 3973299 703
"5635" 3974006 707
"5636" 3974740 734
"5637" 3975454 714
"5638" 3976137 683
"5639" 3976828 691
"5640" 3977533 705
"5641" 3978226 693
"5642" 3978895 669
"5643" 3979582 687
"5644" 3980281 699
"5645" 3980972 691
"5646" 3981657 685
"5647" 3982377 720
"5648" 3983113 736
"5649" 3983831 718
"5650" 3984538 707
"5651" 3985276 738
"5652" 3986008 732
"5653" 3986703 695
"5654" 3987396 693
"5655" 3988093 697
"5656" 3988782 689
"5657" 3989444 662
"5658" 3990127 683
"5659" 3990810 683
"5660" 3991483 673
"5661" 3992149 666
"5662" 3992828 679
"5663" 3993505 677
"5664" 3994169 664
"5665" 3994838 669
"5666" 3995533 695
"5667" 3996238 705
"5668" 3996923 685
"5669" 3997618 695
"5670" 3998328 710
"5671" 3999025 697
"5672" 3999704 679
"5673" 4000397 693
"5674" 4001100 703
"5675" 4001795 695
"5676" 4002466 671
"5677" 4003153 687
"5678" 4003862 709
"5679" 4004582 720
"5680" 4005285 703
"5681" 4005974 689
"5682" 4006679 705
"5683" 4007397 718
"5684" 4008094 697
"5685" 4008767 673
"5686" 4009452 685
"5687" 4010172 720
"5688" 4010904 732
"5689" 4011603 699
"5690" 4012292 689
"5691" 4013010 718
"5692" 4013730 720
"5693" 4014425 695
"5694" 4015108 683
"5695" 4015818 710
"5696" 4016536 718
"5697" 4017235 699
"5698" 4017916 681
"5699" 4018619 703
"5700" 4019345 726
"5701" 4020055 710
"5702" 4020738 683
"5703" 4021439 701
"5704" 4022149 710
"5705" 4022848 699
"5706" 4023529 681
"5707" 4024232 703
"5708" 4024966 734
"5709" 4025692 726
"5710" 4026389 697
"5711" 4027107 718
"5712" 4027849 742
"5713" 4028579 730
"5714" 4029278 699
"5715" 4029988 710
"5716" 4030722 734
"5717" 4031452 730
"5718" 4032143 691
"5719" 4032842 699
"5720" 4033562 720
"5721" 4034276 714
"5722" 4034963 687
"5723" 4035654 691
"5724" 4036355 701
"5725" 4037054 699
"5726" 4037733 679
"5727" 4038397 664
"5728" 4039059 662
"5729" 4039727 668
"5730" 4040389 662
"5731" 4041060 671
"5732" 4041763 703
"5733" 4042462 699
"5734" 4043128 666
"5735" 4043776 648
"5736" 4044412 636
"5737" 4045066 654
"5738" 4045730 664
"5739" 4046382 652
"5740" 4047048 666
"5741" 4047741 693
"5742" 4048440 699
"5743" 4049127 687
"5744" 4049822 695
"5745" 4050560 738
"5746" 4051298 738
"5747" 4052008 710
"5748" 4052717 709
"5749" 4053443 726
"5750" 4054155 712
"5751" 4054842 687
"5752" 4055539 697
"5753" 4056249 710
"5754" 4056948 699
"5755" 4057629 681
"5756" 4058339 710
"5757" 4059055 716
"5758" 4059748 693
"5759" 4060439 691
"5760" 4061155 716
"5761" 4061860 705
"5762" 4062539 679
"5763" 4063228 689
"5764" 4063925 697
"5765" 4064618 693
"5766" 4065270 652
"5767" 4065912 642
"5768" 4066556 644
"5769" 4067210 654
"5770" 4067854 644
"5771" 4068475 621
"5772" 4069096 621
"5773" 4069693 597
"5774" 4070284 591
"5775" 4070877 593
"5776" 4071470 593
"5777" 4072071 601
"5778" 4072666 595
"5779" 4073257 591
"5780" 4073850 593
"5781" 4074457 607
"5782" 4075084 627
"5783" 4075718 634
"5784" 4076348 630
"5785" 4076986 638
"5786" 4077636 650
"5787" 4078300 664
"5788" 4079042 742
"5789" 4079860 818
"5790" 4080674 814
"5791" 4081470 796
"5792" 4082249 779
"5793" 4083004 755
"5794" 4083720 716
"5795" 4084413 693
"5796" 4085069 656
"5797" 4085723 654
"5798" 4086394 671
"5799" 4087083 689
"5800" 4087770 687
"5801" 4088428 658
"5802" 4089111 683
"5803" 4089773 662
"5804" 4090460 687
"5805" 4091198 738
"5806" 4091992 794
"5807" 4092771 779
"5808" 4093538 767
"5809" 4094319 781
"5810" 4095108 789
"5811" 4095850 742
"5812" 4096566 716
"5813" 4097243 677
"5814" 4097905 662
"5815" 4098545 640
"5816" 4099173 628
"5817" 4099790 617
"5818" 4100393 603
"5819" 4100990 597
"5820" 4101581 591
"5821" 4102178 597
"5822" 4102775 597
"5823" 4103374 599
"5824" 4103979 605
"5825" 4104580 601
